time,I,II,III,aVR,aVL,aVF,V1,V2,V3,V4,V5,V6
0.0,0.0013821961033732427,0.001930686620584847,0.0005265508965231401,-0.0016015923102578845,0.00043879241376928345,0.0011847395171770653,-0.002150082827469489,0.0047170184480197965,0.00278633182743495,0.0033128827239580897,0.00278633182743495,0.0010750414137347445
0.002,0.00934793463688803,0.01337677587646775,0.003897525474132843,-0.010968246980995303,0.002736013412379872,0.008385488954750773,-0.01501902784126349,0.03251111560532919,0.019134339728861433,0.0228344086167981,0.019134339728861433,0.007070721506862461
0.004,0.028027216593819543,0.041313678117641583,0.012959042463875532,-0.03346892221986788,0.007314658129606904,0.026503300812212045,-0.046996397612579136,0.1000605019780066,0.058527427653480374,0.07021686974558014,0.058527427653480374,0.02037824203186157
0.006,0.04919150335227547,0.07524552951508266,0.025609481325740535,-0.06019055504389633,0.0108554765579731,0.04942852393501355,-0.08775512999040758,0.1824228356459535,0.10566669189020586,0.12791383671808257,0.10577638999364818,0.03379317912547454
0.008,0.05642383966503073,0.09028807499106364,0.03347737888921697,-0.07122986106512486,0.009736909843123897,0.06053400181001567,-0.11116102048484368,0.2214127750722339,0.1263395732823563,0.1556675625012563,0.12732524641991763,0.03548081312659033
0.01,0.04562222938895022,0.07684742669148663,0.030901512082039114,-0.059542006169439866,0.005717815086742012,0.051941032212038295,-0.10642229720601927,0.19412717085576395,0.1083565801861583,0.13843616668671335,0.11218280817447866,0.02426644207287531
0.012,0.029891799952266776,0.05371277991646381,0.023412855589050718,-0.04015725225238651,0.002744645569819166,0.035963433258905574,-0.09041934377430728,0.1388901870826,0.07533012336375526,0.1028103496134545,0.08432578161996655,0.010517587692427912
0.014,0.021723869627857023,0.044057593571462064,0.021835919543194717,-0.03082793485114565,0.000431838028008271,0.03031545180693015,-0.08402863382848727,0.10212787841937329,0.053070354070781256,0.07945799735804734,0.06855898785682481,0.0021561514191670034
0.016,0.020745667565337033,0.04841885471244148,0.02738338085683851,-0.03235096802908354,-0.0031923385530586226,0.03625520382547986,-0.09043951355520874,0.09129078316075778,0.04256215180974146,0.07230851882167809,0.06489124050513814,-0.002306089843841955
0.018,0.019320771868989294,0.048832679561582146,0.029782540510084977,-0.032044465411363715,-0.006541906896232152,0.03900499910136301,-0.09923293652043078,0.08726786964145246,0.03162003891944827,0.06780332413079156,0.06000649518534623,-0.00795965592530545
0.02,0.011746061752279055,0.034687978606726524,0.02362541377662656,-0.02121857919863647,-0.008347323072602764,0.02939383213132266,-0.1017881543903055,0.07739163381016903,0.016067663612495876,0.05664582479970683,0.047701535032087995,-0.016717441479297997
0.022,-0.0018533175772802086,0.014947313312447195,0.017127374822985163,-0.004249262286274031,-0.011638980253369145,0.015578706260321195,-0.09842036348518872,0.0644052866718101,0.0009075472451166851,0.04071794869179181,0.03261133822552982,-0.027152864276494538
0.024,-0.015738112877654774,0.004339840985345353,0.019448596811371312,0.008244755888631689,-0.018648750807062325,0.010370204651004125,-0.09412937263865821,0.05464981863829955,-0.00976374502687927,0.026562996433268794,0.021377057372188434,-0.03781919445530904
0.026,-0.023890980357296455,0.005456725190097628,0.028113558600858474,0.011539996415737303,-0.026445816483676127,0.015090908858286551,-0.09216601448216363,0.048269947933212536,-0.016524738171195392,0.017457286883849284,0.014936808770041365,-0.04829971886193668
0.028,-0.026011977691460957,0.008665381671247903,0.03377649603533878,0.010279461089147745,-0.03071444613876835,0.020357059563470142,-0.09226588697780873,0.041288411833953445,-0.021762898202000686,0.012149908141355822,0.00963900984066576,-0.05748212370976731
0.03,-0.02618448965084837,0.005933685013733656,0.03202898698708645,0.011085027030128088,-0.030786941411582735,0.01882805087439611,-0.09236342511960888,0.03184509261104393,-0.027560162548695876,0.008453736367686489,0.0039401039878146065,-0.06313461078242805
0.032,-0.027584315079796654,-0.0012367915342667744,0.026733771089482872,0.015375693895897153,-0.02949821166037741,0.012443802425865217,-0.09125295837141777,0.020791916003536182,-0.035472124532156854,0.00438999662352947,-9.729138653136253e-05,-0.06425675259129758
0.034,-0.030269282208192437,-0.007278485631014473,0.02337191840356137,0.020058921485864918,-0.02912890827613684,0.007140813375758847,-0.09062334313181639,0.008771922308191566,-0.045903775004885364,-0.0028069469984424887,-0.0025938322109544075,-0.06312841053844066
0.036,-0.03257131290403585,-0.01028082545819581,0.022670748151990633,0.02251921183491255,-0.029222574628082944,0.00492570017948094,-0.09295373038604106,-0.0034791636644978096,-0.058196976188969546,-0.01434089186947795,-0.007853460664950043,-0.06404792930403128
0.038,-0.03419642827438374,-0.01250647388186681,0.022281268872911916,0.02380148713634815,-0.029216624021353603,0.0036955292926398255,-0.09652129726907525,-0.012826515073791523,-0.07181501512804754,-0.0266073760113967,-0.018062872564504076,-0.06925235341644502
0.04,-0.03740140098304952,-0.016853893050081614,0.0211922302809219,0.027301438534879294,-0.030327616877348917,0.001309662481764944,-0.0965513702502684,-0.015602205091491165,-0.08635042621102063,-0.03432962749899795,-0.029504007960350808,-0.07662989106200892
0.042,-0.04405910693786086,-0.02480469813323277,0.019554356274778445,0.034915972420493616,-0.033136298893366195,-0.0033626681522826067,-0.09228746310849731,-0.012536450736693166,-0.10030430923827299,-0.037073498332021275,-0.037242180955782876,-0.0823737796393531
0.044,-0.05294627844760496,-0.03503268442793614,0.017793696783025763,0.04496737101158907,-0.03666982126026896,-0.00988086475996709,-0.08809400620475998,-0.008868407517738928,-0.11101891533137115,-0.039195577127396936,-0.04016237589613749,-0.08515796325280077
0.046,-0.060822529319873704,-0.04300227835845027,0.01759765253485658,0.05351997358973966,-0.04037026918741404,-0.014757219120034915,-0.08753637699497141,-0.008959574123224207,-0.1172739027591772,-0.04354550890054773,-0.04060375488070088,-0.08700313915523332
0.048,-0.06446636802398834,-0.044802478904291565,0.019612196253623544,0.05702948113413171,-0.04329204864629292,-0.014877790350887944,-0.0901183665011006,-0.012879249214380807,-0.1212974213325637,-0.04807942836683606,-0.04134405125975624,-0.09031000847833116
0.05,-0.06265534067049179,-0.04138336246436743,0.021365416691174432,0.054686435356148574,-0.04341336608609502,-0.012054188618292813,-0.09315665523981073,-0.018218328827951234,-0.1261789777128831,-0.049680361739642985,-0.043356923388245074,-0.09468311749331007
0.052,-0.05899170600740003,-0.0376347846596929,0.021451973666438987,0.050135829028993405,-0.04175605828208231,-0.010256956824495988,-0.0947161643914833,-0.0239097648028858,-0.13306066628032714,-0.049831913047564756,-0.046307558209513246,-0.09799492098315396
0.054,-0.05933558260605458,-0.037853900888129746,0.02159746481797452,0.04911035910794073,-0.04240769024409324,-0.010813788633717078,-0.09452567259883977,-0.03126606907330102,-0.14232012765522825,-0.053663360665778904,-0.050683809002945494,-0.10029721082431671
0.056,-0.0635425671570585,-0.04193447353307523,0.021910286534132798,0.05286826699691497,-0.04519537008856191,-0.012831173443610332,-0.09304161870955246,-0.04041390884491347,-0.15382035464975702,-0.06315881466453344,-0.0577591439064392,-0.10375482261071352
0.058,-0.06574103270488049,-0.04611992497862371,0.020160959906123814,0.0570987993641752,-0.04537028445324457,-0.015213928747563771,-0.09085203513811295,-0.04753317200309104,-0.16476813830383039,-0.07398083620812891,-0.06709771928753604,-0.10838301820028058
0.06,-0.06441774983527228,-0.047829926053157765,0.01721171695261694,0.05876592992946218,-0.04249732655682879,-0.016748094699376773,-0.0882816195414014,-0.048216110028861246,-0.17082131744269377,-0.0797305463563522,-0.07518232858659601,-0.11155084747586537
0.062,-0.06504187203485982,-0.04879173836537187,0.016795124545073026,0.05999728842576243,-0.04190819711036603,-0.016943744309347957,-0.08482355969390927,-0.04254265278197324,-0.1703834453756408,-0.07829873851837184,-0.0779797600462491,-0.11259864382355284
0.064,-0.07163127946561866,-0.05296982093349939,0.0190962547904,0.06441228051723312,-0.04608453297313393,-0.01777115644372209,-0.08016476421199706,-0.03492265125941579,-0.16612546426126512,-0.07368946743225423,-0.07549240307796931,-0.11416974184163593
0.066,-0.08117390898259054,-0.061020551681348956,0.020476806786265934,0.07194800578281646,-0.05132074576396568,-0.02129147094665225,-0.0759815925774727,-0.029882299260238394,-0.16218153481024827,-0.0715578762121977,-0.07215329945458576,-0.11785911534891219
0.068,-0.08720516450897413,-0.06763602843635785,0.01974333776235645,0.07793473481282681,-0.053603702688126816,-0.025290371571206248,-0.07521210551502476,-0.029600448572618773,-0.16095546803115654,-0.0733146393277342,-0.07190187654250209,-0.12226310215760672
0.07,-0.08609700936240751,-0.066963212536437,0.019236519142603378,0.07762187333480226,-0.05261995669138033,-0.02548129139952694,-0.07872866405963716,-0.03411957748459657,-0.1621696413219498,-0.07567427422915665,-0.07416380064216994,-0.12572973749947436
0.072,-0.07989900336577159,-0.05953083832435584,0.020601901659864596,0.07130717492169752,-0.05043105229263571,-0.02115859743247192,-0.08388999027719285,-0.04152209551073131,-0.16405313028709978,-0.07596116230930643,-0.07521651564075293,-0.12721622844999106
0.074,-0.07413050346359135,-0.05073136268807158,0.02378505292392975,0.06373361832028124,-0.04968898609511461,-0.015024249498680376,-0.08731169528048037,-0.048510350244032024,-0.16574030226879652,-0.07546787636000094,-0.07320006030666454,-0.12540732619367104
0.076,-0.07228478276760657,-0.04457686677884319,0.027994204511663883,0.05917426554022388,-0.051501874729176916,-0.009808848091435911,-0.08760239139934693,-0.05221133158179131,-0.16788462619791475,-0.07649178721423734,-0.07083286227957131,-0.1207650392716173
0.078,-0.0731123902689916,-0.042165847805608926,0.030955597894730576,0.058622827505429236,-0.05362928816347808,-0.007549614243480738,-0.08505414641153548,-0.051297269633070214,-0.17046912115784535,-0.07894636198484146,-0.0720426486106074,-0.1168746532016046
0.08,-0.07373432894154208,-0.04375115007212083,0.029859512791932868,0.06073074570737109,-0.052918263440691046,-0.00950246435197822,-0.0811831884554635,-0.04619733372341409,-0.17204177941732424,-0.08137856262911897,-0.07675362242357522,-0.11684686493358754
0.082,-0.07339950679006924,-0.04881055111352709,0.02466026613477209,0.06369230924245921,-0.04936837682623774,-0.01479003064431297,-0.079092229187432,-0.039507889199855865,-0.17184628450482894,-0.08282562984369961,-0.08063572695175901,-0.11990996878607962
0.084,-0.07336267134345928,-0.054757543197076826,0.019100938997825178,0.06610441328581029,-0.04618778616699857,-0.020039681497007418,-0.08146884997288821,-0.03489366284570058,-0.17079159691254372,-0.08271182778675132,-0.08014213474895679,-0.12315446672298178
0.086,-0.07432843405274298,-0.057269245810762356,0.017871508737181914,0.06661881386122147,-0.04645893601683262,-0.021229296105685008,-0.08716090704659236,-0.03393758220317037,-0.16962903764421514,-0.08077185881833246,-0.07643718812926759,-0.12472507934058544
0.088,-0.07501702243873536,-0.05361969950170186,0.022107312143283687,0.06425424855909408,-0.049981078651293684,-0.01711487125700461,-0.09180388617274317,-0.03524181900923574,-0.16753423282444851,-0.07753237311036211,-0.07294073095761501,-0.12414601324426754
0.09,-0.07379770936866396,-0.047114880826568305,0.027014896598203286,0.06038247886153909,-0.052784036331335576,-0.011785113339816078,-0.09271047294473035,-0.03690993000228257,-0.16338213579392832,-0.07374856879342082,-0.07025273257529682,-0.12131314688009928
0.092,-0.07131187740862001,-0.04561321889951918,0.02583529917823046,0.058834217691940346,-0.050998394582463524,-0.011924013824624841,-0.09165180001644158,-0.03811951890187208,-0.15792532593734396,-0.06982173740782069,-0.06647318309764548,-0.11640457343291587
0.094,-0.06998882330026018,-0.05259772931804592,0.017633273947306675,0.06180302909740268,-0.04561017239239721,-0.019427943138751447,-0.09212032668554442,-0.039232361172925174,-0.15403525610520633,-0.06695469112773852,-0.06189916400679274,-0.11023530475352995
0.096,-0.07056925263678213,-0.06204419000136128,0.008930478197188979,0.06643488685748239,-0.0410889558267825,-0.028169620417389248,-0.09493728801619106,-0.04117542168056543,-0.15402226677473577,-0.06737871589776874,-0.05972321375500304,-0.10452370370736265
0.098,-0.07106401112001247,-0.06520047282890586,0.006402066640853915,0.06780348672754413,-0.03982261233326767,-0.030426151653165943,-0.09765477329307086,-0.04296100542637742,-0.15678569250185748,-0.07164952855051894,-0.0620394517311129,-0.10188971231824175
0.1,-0.07018919814967096,-0.06012607407078687,0.010719846962796136,0.06492950889569704,-0.041126130819882444,-0.025073404676963625,-0.09833679247939305,-0.042045437097978096,-0.1596750750539797,-0.07747338499340012,-0.06826660244567717,-0.1045225968674414
0.102,-0.06940812809664341,-0.051946911235120054,0.018044203691119816,0.06141715487463261,-0.04423097910598402,-0.01718464100820725,-0.09817655220685637,-0.039167460720192636,-0.1623908121232731,-0.08234310709004332,-0.07657668321422163,-0.11183548803449805
0.104,-0.07058946721166096,-0.04679577078747376,0.024025940850107258,0.06080247688223919,-0.04860623373734417,-0.011976245466973167,-0.09842562507885567,-0.03803884630778805,-0.16536243284635496,-0.08512469968565536,-0.0836252037931241,-0.11997393916329799
0.106,-0.07377313524995423,-0.0475902010243951,0.02608633914403064,0.06350395577837768,-0.05257136183417426,-0.011428712695667616,-0.09706506845802641,-0.038979770718300305,-0.16623532338610375,-0.08490319867020046,-0.08514992270073146,-0.12485946300145205
0.108,-0.07689900302589375,-0.05269384290904687,0.024151812237488378,0.0670805883751827,-0.05369666714135295,-0.014521263081670965,-0.0919522200795921,-0.03858987732217058,-0.16232791297477756,-0.08117398324624349,-0.08035801299887027,-0.1257864751124745
0.11,-0.07620529870557076,-0.05701750855612494,0.01948100950850443,0.06778733744035478,-0.05011000310521762,-0.018683111487202482,-0.08507016137395347,-0.03606597268698512,-0.15468904299750394,-0.07568139391117572,-0.07327872560013138,-0.12529047277901134
0.112,-0.06917963718928942,-0.05588829585268597,0.01379503592907928,0.06330872427339398,-0.04228242328494713,-0.021257473960507266,-0.08043136591939595,-0.03441538047873945,-0.14714362633743908,-0.07202538680061557,-0.06812661575571877,-0.12551269108761776
0.114,-0.05917047587651376,-0.0498674924591297,0.009638115124616773,0.05585961100981595,-0.03426641903351653,-0.021135529719997808,-0.07942502233931517,-0.03541775876813402,-0.1430517722880621,-0.07260652794925145,-0.06635731138999107,-0.1255729205811588
0.116,-0.05392501943629943,-0.045598319656441295,0.008438097789711293,0.05160245968603298,-0.030879296388558776,-0.020314834832014746,-0.08007715843799476,-0.03742076287738331,-0.14364153502883759,-0.07601678511923482,-0.06788487394528477,-0.12353073169574628
0.118,-0.05702078720746655,-0.048677442777796495,0.00861724365631514,0.054429247396675325,-0.032954800986648755,-0.021924976549699052,-0.07962768708485633,-0.03772757188097201,-0.14763319966682215,-0.07807680270058738,-0.0716106610269684,-0.12018521608454716
0.12,-0.06416975439196937,-0.056569112678394894,0.008277619458538304,0.061511239576927834,-0.03734748200084827,-0.025691721218251747,-0.07739239289645498,-0.03519551254179129,-0.1518531206618766,-0.07669640236729248,-0.07557813149252485,-0.11854146577640713
0.122,-0.06972896388505002,-0.06245972961815372,0.008032033071964255,0.0673923450614145,-0.04112332529517433,-0.028109116192655187,-0.07571979923123145,-0.03087365646458802,-0.15291902899126586,-0.07399341567687318,-0.07845272840380803,-0.119276961696888
0.124,-0.07208303579402736,-0.0634694449883085,0.009044471315990083,0.06950506949467304,-0.043189844982141914,-0.027403103859641197,-0.07752687855588544,-0.026443237228616946,-0.14951317572622794,-0.07200076528686863,-0.07976814783871167,-0.11933088444903989
0.126,-0.0713475604710027,-0.06162773087565185,0.009897173213586966,0.06794825155868371,-0.04264811136707319,-0.02583974287809877,-0.0828724359679351,-0.022993186877609352,-0.14414055416230714,-0.07030027208111439,-0.07940073068111185,-0.11607791794646476
0.128,-0.0676341023703098,-0.05947319838962637,0.008489608300244995,0.06398677868142187,-0.03945026919627617,-0.026178448554973,-0.08860968382187645,-0.021536194818490822,-0.1411639577433929,-0.06914912094043048,-0.0779207399924244,-0.1103094731537207
0.13,-0.06300110671055278,-0.05743223623760747,0.006248140598554323,0.059976944595014854,-0.03626779179218363,-0.027425891121535605,-0.0911225821809076,-0.022420001913909953,-0.1417691783176386,-0.06962473193119394,-0.07573725687137413,-0.1038747029982127
0.132,-0.06025284343857857,-0.05491903347317524,0.006172946848465725,0.057797350860266015,-0.03563034139468432,-0.026642136584716807,-0.08952786506657065,-0.024281335686504774,-0.14322810595024255,-0.07052908384983039,-0.07202884815307187,-0.09750951858839282
0.134,-0.05950168572898077,-0.05181748270221377,0.008290749429232656,0.05690465667733806,-0.03662039477572113,-0.02341598709196842,-0.08671331794810817,-0.025881005415884218,-0.1435728408272864,-0.0700206368741711,-0.0668038536602606,-0.09201774407000995
0.136,-0.05930652829625116,-0.04824773144711181,0.011198785105122618,0.055617134348933714,-0.037665605890427244,-0.01945257039849075,-0.08632519025411399,-0.02797397929828018,-0.14369801520247627,-0.06926061131596235,-0.06274081794279131,-0.08851041933303376
0.138,-0.059147436551630676,-0.04489816583461286,0.014070857618380148,0.05367990282519538,-0.03868037511983642,-0.016364627848677316,-0.08796254988912172,-0.030640595333134166,-0.14427758783949599,-0.07027773817498759,-0.06204862000560186,-0.08653151041815871
0.14,-0.05806880095025282,-0.043803144246755,0.014102246774384057,0.05199959658406417,-0.037873224747722894,-0.016255898756087496,-0.08698775579552302,-0.030444243714039653,-0.1436076008621338,-0.07161877521337008,-0.06314381038401523,-0.08398750811795068
0.142,-0.05483441140931778,-0.046678609722089225,0.008164648218604137,0.05136897038286485,-0.03253683926030861,-0.020738859537271018,-0.08062855133247478,-0.02424683534870116,-0.13997420399909732,-0.06998944074614402,-0.06331781533666261,-0.08039774999616642
0.144,-0.05087257268146506,-0.05183999280081155,-0.0008772276184378838,0.051987968737353445,-0.02484149203761711,-0.027325274374951213,-0.07233598054885139,-0.0147592847029692,-0.1346277280040767,-0.06522418264969049,-0.06265779014474561,-0.0790113103385472
0.146,-0.04875208692418254,-0.05469262617434076,-0.005902010144430736,0.05254427287258057,-0.02052919307140634,-0.03058350897900037,-0.06793013555812602,-0.008574528431095615,-0.13062359365107093,-0.06055944378637123,-0.06277498502625581,-0.08264234641716725
0.148,-0.048073061276478694,-0.053013753629252695,-0.004970988926632146,0.05120424580076708,-0.021155504459702656,-0.02895744332097153,-0.0690054494187032,-0.00885087923265489,-0.12869723296945274,-0.05819120824717958,-0.06301017896458402,-0.087869941595725
0.15,-0.04631118350456656,-0.04947574893733941,-0.0031999164754365973,0.048316080408161065,-0.022705543404378095,-0.026556441267026762,-0.07206705358836571,-0.012693885000914723,-0.12650621823162758,-0.05678105210626324,-0.06045242062524313,-0.08789340250517834
0.152,-0.04295628082418312,-0.04730780998519887,-0.0043518976664578424,0.04603671624338269,-0.021874571062879142,-0.0265707755296846,-0.07351361000444258,-0.016342491815677467,-0.12358425604719792,-0.05467378414043456,-0.05475221627471071,-0.08159973974900388
0.154,-0.04019818410273544,-0.046283475381050404,-0.006066200225773942,0.045262955359558404,-0.019829929308178805,-0.027151215641295048,-0.07331770963196471,-0.019515230141432596,-0.1235765050017961,-0.05336703550899901,-0.05038056175307286,-0.07489178321849693
0.156,-0.03946042885212826,-0.04349479523030334,-0.004025052864102919,0.044114201801250294,-0.019565938975982262,-0.02447593812062799,-0.07272966559374835,-0.022885962446200676,-0.1283697012251965,-0.05524553730688949,-0.05148875349583177,-0.07256380931290266
0.158,-0.039433906036799374,-0.036783754376991086,0.002644182828868292,0.040199302504350186,-0.02192961087030951,-0.0173602580469169,-0.07136500796210397,-0.02511225608692664,-0.1341676174246882,-0.06009833402023153,-0.05700694760391713,-0.07387872153019359
0.16,-0.038097347830763115,-0.028523810480668974,0.009565604891795287,0.03442062190560479,-0.024471804461593517,-0.009639596467269857,-0.06907465766319872,-0.02453576092544928,-0.13627762972527507,-0.06539679164955496,-0.06302323419987142,-0.07620785115331437
0.162,-0.03569302754451524,-0.024616270189239883,0.011076225997785795,0.030949097101905645,-0.02435197542795424,-0.007205671899403093,-0.06784806619926509,-0.021364282657541193,-0.1340914217458563,-0.06827467573995001,-0.06749881321253776,-0.07864311199865358
0.164,-0.035105087399472525,-0.027283507826226187,0.007825654641848381,0.03253040463038014,-0.022655788175946493,-0.010670794310159232,-0.06939313199194493,-0.017457072522304017,-0.1304926262872367,-0.06812834882849028,-0.0709711657356119,-0.08165963304277368
0.166,-0.03799094302493761,-0.03189847975519644,0.006094699663585577,0.03686555318929855,-0.022826874905324195,-0.014342985861509804,-0.0721600512186667,-0.015276209069321799,-0.12886157374154197,-0.06835581214655236,-0.07447802591701655,-0.08507205683133791
0.168,-0.04128455643928338,-0.0335102481695263,0.007773152621298658,0.039073563842692505,-0.024586344139157834,-0.014424529857877153,-0.07224751247012065,-0.016256955152642687,-0.13029372361060013,-0.07248123488999807,-0.07786836767806778,-0.08674203216689524
0.17,-0.04031843755334737,-0.03199786251882071,0.008340742204847944,0.0369718763333843,-0.0243113837426103,-0.01288988374540164,-0.06793327106409189,-0.01936836503792642,-0.1331569145822644,-0.07831149144711995,-0.07936380029954719,-0.08444951486120594
0.172,-0.03478920247009803,-0.02904224597481628,0.005878056308326924,0.03223622232151014,-0.021263928618478638,-0.011975416756248618,-0.06283514070026416,-0.02268051596235754,-0.1356450316550549,-0.08083340211227431,-0.07745793384101261,-0.0794905852063218
0.174,-0.02958157434702935,-0.0262068064620661,0.0037030510622594387,0.02836029703541321,-0.01870989092718303,-0.011573014412999233,-0.062195650432178215,-0.02601441573466268,-0.137538192521239,-0.07997534989647587,-0.07343739352105623,-0.07571076217118572
0.176,-0.029566909012000212,-0.026237980474295024,0.003752064353966498,0.028692931340021186,-0.019124475640099108,-0.012274333459030175,-0.06611358137549518,-0.029665437671915987,-0.1391158376438743,-0.07945773336559138,-0.06992679524747306,-0.07402755371962418
0.178,-0.0341679164063638,-0.030048908686624826,0.004374330265563723,0.03330836615507187,-0.021331995917402383,-0.014711218825850622,-0.06985360855525975,-0.03183859210387446,-0.13992461825393718,-0.07993663986941502,-0.06765385202619918,-0.07166531132074908
0.18,-0.03851413391758402,-0.03465699707994872,0.0038310696280388894,0.03829257647743244,-0.02245227889985659,-0.01754300328826666,-0.07054283079687976,-0.030282257735568134,-0.13890435088420336,-0.07883063539042996,-0.06566547448526912,-0.06795773417254294
0.182,-0.04036261248405754,-0.03828126175023883,0.0019354850870349023,0.041189510544980205,-0.021684461239350344,-0.01993287567011538,-0.06987498627668869,-0.025296372556076124,-0.13512517440682328,-0.07500432182526691,-0.06310210205189867,-0.06664813337846835
0.184,-0.04296295060775543,-0.04231207138914949,0.0005878454093194794,0.04407387797818567,-0.021909397579179757,-0.02214412835676709,-0.07042557729612521,-0.019737837019424893,-0.12959161858663998,-0.07035018237856745,-0.06022435664009153,-0.07116209097234977
0.186,-0.04917077461417274,-0.045647094467945674,0.003569934629031481,0.048143854704417954,-0.02660315260425604,-0.022278149579018205,-0.0720616183932973,-0.01666914820835814,-0.12559812088318478,-0.06768783763129675,-0.05869383571164026,-0.0799745775613405
0.188,-0.055670770318243336,-0.04365698511535643,0.012070163755771468,0.049852639617829694,-0.034671481704869306,-0.017601832738425843,-0.07240614900947963,-0.016342540876552663,-0.12461751233809717,-0.06758882465954379,-0.05919332386586914,-0.086883849529948
0.19,-0.05621983364640197,-0.034937597518012765,0.021306249914545862,0.04567885149359549,-0.040209843185005464,-0.009403414228153323,-0.07035011283411649,-0.01630132963566547,-0.12471406841799348,-0.06771143731756503,-0.05977821081262803,-0.08651872002974148
0.192,-0.04927007033351998,-0.024207126944894977,0.025164633509196996,0.0372375364344491,-0.03879957721460227,-0.0024432170903144115,-0.06822300039769671,-0.015954931021541437,-0.12556170974706468,-0.06693554189727102,-0.05943615261000082,-0.0804537134934135
0.194,-0.040447164429901684,-0.01828881595942079,0.0224704871257724,0.030372839863654542,-0.0325302225708625,-0.0005657869072393693,-0.06874500554388856,-0.01769288835757867,-0.1293771686892337,-0.06801207615499223,-0.060286303199651704,-0.0753672671625876
0.196,-0.037423057932065296,-0.021223291401368475,0.016631221592079387,0.030511559240049415,-0.02737652822808306,-0.004493396574121348,-0.07073599878291453,-0.021681128363262803,-0.13504524870064208,-0.07314775238355425,-0.06360680751240894,-0.07479380532459715
0.198,-0.04189837409808384,-0.030540697866361374,0.011625776076733181,0.0371880413952233,-0.026785726115835292,-0.011323130552833127,-0.07116124155767252,-0.024553289112390405,-0.1381855253085805,-0.08035550332263015,-0.06783368277889051,-0.0766282537671127
0.2,-0.048049074707693186,-0.03830444227907121,0.009720128401908782,0.043845158805980514,-0.02934855568567718,-0.01593893121626372,-0.07060478698873883,-0.02484511975741944,-0.13815007381005948,-0.08690879773663705,-0.07240693587954773,-0.07879614345877306
0.202,-0.05036294240726684,-0.03940694396979907,0.0108039074955059,0.04561160217556736,-0.03179719458894653,-0.01570302428153408,-0.0720847919623128,-0.024776380071839063,-0.1384777640654478,-0.0921515836147103,-0.07847890001016457,-0.08205405287063917
0.204,-0.04982554024571483,-0.03690740869487562,0.012851271446564696,0.04456253470219185,-0.032536610186483995,-0.01326614081947555,-0.07535020685999197,-0.025900181961651787,-0.1403389111804301,-0.09513606325196862,-0.08424348548809431,-0.08595242743511862
0.206,-0.0504232473940787,-0.036355033285477914,0.01411603822216079,0.04517578583880184,-0.032426853338806266,-0.01271161044803656,-0.07699626290903691,-0.027000584762334925,-0.14111589341943434,-0.09377229266382772,-0.08490593761139313,-0.08713837815032235
0.208,-0.053112559549268516,-0.03857098106781129,0.014600794830193303,0.04813569544370768,-0.03302101370044821,-0.014449839895359674,-0.07519901351826913,-0.026634682960095368,-0.13900629474586232,-0.08782883461230394,-0.07875845604526323,-0.08357431605328937
0.21,-0.05577204413910085,-0.04073031004648041,0.015044307146589126,0.050805843498259326,-0.034742968888492216,-0.015839298814099532,-0.07181897050683538,-0.025867036990244455,-0.1356684905553403,-0.0807635356434872,-0.06971064046652038,-0.07722388662475346
0.212,-0.0565290390400657,-0.04077681424195115,0.015721288799170247,0.05092775010297792,-0.03675129377519774,-0.015130791494062804,-0.07074781368684752,-0.028070096894010438,-0.13464078807087443,-0.07758365601508845,-0.06317489803400529,-0.0715371959791283
0.214,-0.05455454382804695,-0.0386218885699792,0.015916476703577893,0.04797536536314231,-0.03719361112408985,-0.013346537502003347,-0.07422771147006253,-0.03501558936387313,-0.13742429404026585,-0.08009748556746299,-0.061209817908355245,-0.06782318233267469
0.216,-0.04975496152093232,-0.03582833465894095,0.013935762792843925,0.04335342898088756,-0.034077672939107566,-0.013054591149641609,-0.08035456825705792,-0.04319992989050506,-0.14121844123710725,-0.08457404403598379,-0.06193403512431053,-0.06489328136812486
0.218,-0.043904248407134666,-0.03453844324917944,0.009378991123118562,0.03992233734945447,-0.028096365722850566,-0.015192889161914183,-0.08513822758336316,-0.04674906099612733,-0.1423938734362024,-0.08635580736478704,-0.0631921335391083,-0.062227101987507166
0.22,-0.040460635185147205,-0.03517456367403779,0.0052873842106762456,0.039370025738774746,-0.023668547995010066,-0.017537662790383653,-0.08629781947777099,-0.044266892063758084,-0.14136023641089257,-0.08609405338801429,-0.06556646352234348,-0.06190811725849895
0.222,-0.041797126629842966,-0.03665706722415384,0.005133491447386855,0.041040135860059626,-0.024558376032566907,-0.017952914297125096,-0.08354339957504035,-0.0396826485919926,-0.14056136300718927,-0.087489821586014,-0.0697381434719629,-0.06538166188052805
0.224,-0.04647357433952485,-0.03849292121991254,0.007976799844542597,0.04358519816756751,-0.02888459885708979,-0.0174656087452769,-0.07706700780922396,-0.03647712279649024,-0.13941846028064678,-0.08999728384231111,-0.07292902200282422,-0.070036057618438
0.226,-0.05014270106303063,-0.040203075688817265,0.009941369117066346,0.04567942257531692,-0.03130956731408266,-0.017684783206368265,-0.06843882640933042,-0.03476647724225903,-0.13649876516579038,-0.08987262258374164,-0.07233539552816197,-0.07256432154195175
0.228,-0.050695285299446634,-0.04069751963876603,0.010000701345666984,0.04648090696608162,-0.030364192429667643,-0.017860376954573244,-0.06126564560353996,-0.03376010180751544,-0.13409369147792533,-0.08756723663452848,-0.06956623991749968,-0.07373512714577732
0.23,-0.05060238066911069,-0.04029032955607326,0.01031250174171892,0.046790482139780695,-0.02980049100195762,-0.01717313432893488,-0.05853052735932622,-0.03378727207968136,-0.13486103891625392,-0.08741248973868902,-0.06777285151349118,-0.07602909626455505
0.232,-0.05242127192527217,-0.04097792902620404,0.011441956073082318,0.04795698010863689,-0.032057795314778564,-0.01701699292496061,-0.06061529773535761,-0.03619305608003642,-0.13782689792509695,-0.09127819467130124,-0.06827514507472342,-0.07940291849165969
0.234,-0.05536891919033714,-0.04382875207222772,0.011539258777607078,0.050117082624555616,-0.034903030977057645,-0.018645443793522336,-0.06597091347036105,-0.042032048241758005,-0.14138093378504973,-0.09737305955869612,-0.07174256863272153,-0.08236244368350477
0.236,-0.05754297099235746,-0.04774966504826855,0.009793628894823889,0.05269936497196978,-0.03553255271509274,-0.021019008488444322,-0.07098931162151906,-0.04927532106013797,-0.14460972009176676,-0.10255140613695167,-0.07756914971552184,-0.08387454096321466
0.238,-0.05808233754325834,-0.05025024103448234,0.007832746470271688,0.05466241769149974,-0.03430614482360584,-0.022228716389447793,-0.0704308416793511,-0.05273811775538351,-0.14536351749882362,-0.1038393065904001,-0.08259937310792148,-0.08299550574056151
0.24,-0.057081157676642215,-0.04903856994991775,0.008064661562775709,0.05446119911707676,-0.033436368538154654,-0.021309164496241734,-0.06131511743612398,-0.049658969759656384,-0.14289505288030604,-0.10130857123914669,-0.08511975804250198,-0.08002496296110356
0.242,-0.05601442413326142,-0.04496973083435014,0.011175718473795919,0.0525734205744957,-0.034274540738446456,-0.01886231127537411,-0.045687599839436696,-0.0434546981577903,-0.14048287804429893,-0.09903715192143657,-0.08762542780326356,-0.07802788144689983
0.244,-0.05681584053928858,-0.04237385219356966,0.014769195359246942,0.052063202136792046,-0.03631326540497109,-0.01686666826569444,-0.028800011292236187,-0.03962217348465954,-0.14160127578437143,-0.10028537572211374,-0.09250694124312375,-0.08056285477679684
0.246,-0.05866084350797984,-0.04395414108370318,0.015129364937720921,0.05400959070633949,-0.03731319790245099,-0.01717119513922233,-0.01598975631082182,-0.03995612142493745,-0.14558699457057214,-0.10321318504861518,-0.09809934347216864,-0.08770227976722379
0.248,-0.058525958500637354,-0.04772705192844325,0.011054590330456074,0.05584911395453589,-0.035183979865938485,-0.019901574696756602,-0.009846295588658448,-0.04255019301409481,-0.1486535926682385,-0.1032914798009675,-0.1008070633334067,-0.09499822869913402
0.25,-0.05622340952575501,-0.05076743364640725,0.005430339497002409,0.055996009683445896,-0.031151455917760768,-0.02343140929857942,-0.008547945074309131,-0.045710439493760996,-0.14835644483131405,-0.09891997444573584,-0.09942340829879058,-0.09717022187118014
0.252,-0.05515846492038948,-0.05291681104347716,0.0020957968947642137,0.05612406901097233,-0.028981992219859656,-0.025878782490297843,-0.00824822543932638,-0.049525707063018294,-0.1462243308763814,-0.09361640203851143,-0.09652089251639256,-0.09367197578610559
0.254,-0.05698088417108162,-0.05497202384501782,0.0019455955430000994,0.057583074713391115,-0.03008000135278965,-0.02659723082389569,-0.006870879997045939,-0.053959539586844664,-0.14560600438669127,-0.09271772233384848,-0.09529044080831597,-0.08895693691168434
0.256,-0.05906952420247548,-0.05578666501337459,0.0033289986176834067,0.058879846300229494,-0.032074289071735214,-0.025985448666337282,-0.00452626727963874,-0.05785284749906096,-0.14764958572714254,-0.09774578336596083,-0.09558357357840885,-0.08618091627118743
0.258,-0.05884471081587539,-0.0540258446435994,0.004897255437426709,0.05835181049282165,-0.03277551368901976,-0.024630657213248607,-0.001980948719813195,-0.06049766994059569,-0.15016734001027518,-0.10411920623606803,-0.0949269049661028,-0.08411317284128178
0.26,-0.05773676191731276,-0.05109960047928695,0.006770648113943994,0.057010080655147385,-0.03302186563068299,-0.023059221976812816,7.354805885320289e-05,-0.062194413960872344,-0.15054308097809485,-0.10525685053478682,-0.0924877656927415,-0.08139628958423205
0.262,-0.058531425318696366,-0.04960276572391757,0.009248400044919934,0.05673999421438726,-0.034412405875859406,-0.021751718076417893,0.0013625431286101307,-0.06278368902358529,-0.14885687380624163,-0.09917004634902679,-0.08964682185642014,-0.07959666148929966
0.264,-0.06088471633224126,-0.05075645425671066,0.010644913777522826,0.05777787756533503,-0.03593332239967041,-0.02176580658729982,0.002028318922285539,-0.06156110720505903,-0.1468221631291942,-0.09022828776289886,-0.0878257881104274,-0.08069376315578024
0.266,-0.062050044159655274,-0.054619207932302995,0.00786936284469433,0.059517996743067264,-0.03502045366573411,-0.02478354091634306,0.001966267121174088,-0.05876191789383909,-0.14470225617588983,-0.08384211023091483,-0.08727386228887336,-0.0838829157659807
0.268,-0.0604346508340464,-0.05968359951113494,0.0007018211364236425,0.06113827754402474,-0.031183028827614107,-0.03060071960811401,0.001006565260558986,-0.05592494333513514,-0.14171417104126402,-0.08102100838192099,-0.08712108823658497,-0.08619847622629104
0.27,-0.05700266765096527,-0.0619298939268994,-0.005566315458820514,0.06090758099121898,-0.02708125540390341,-0.034974819463311914,-0.00018033846151232266,-0.05524908357112116,-0.13914297788988664,-0.0800497480236744,-0.08665402490657241,-0.08662581521958206
0.272,-0.054492255145617334,-0.05814520403062735,-0.004426275444619186,0.05787914043975204,-0.02627064676113902,-0.03288249571923961,-0.0006083834456832088,-0.05860094878279243,-0.1400045958117307,-0.08106605541058097,-0.08704573556901374,-0.08763696762264259
0.274,-0.055094495106943024,-0.050894667880314555,0.0038666385033162727,0.05413798786328491,-0.029638210964555798,-0.025050782165341727,-0.00012097368972170004,-0.06582195592280525,-0.1448510950456296,-0.08560410208694685,-0.09050111946634942,-0.09074415441174763
0.276,-0.057986673611553206,-0.04699482453124611,0.011136269803024361,0.05315133270440114,-0.03400339670920272,-0.0186937280896917,0.001081740573077808,-0.07375433207278836,-0.15084473169508741,-0.09268198017800826,-0.09686498192122818,-0.09320344598898712
0.278,-0.06027957119690161,-0.050247587388057666,0.010182711639772418,0.056122388053796594,-0.03534398249388249,-0.019924749431856018,0.0033933663535658173,-0.07793864584406306,-0.1555556213990358,-0.09842598188376023,-0.10282412337180544,-0.091872977300984
0.28,-0.06096325194779217,-0.057615719167401755,0.0031957445015978695,0.06098359710383332,-0.03353945658583754,-0.027019841165148623,0.0070259956454075175,-0.07643912661247632,-0.15863127259873283,-0.10070909992969276,-0.10586884200942948,-0.08849205848769748
0.282,-0.0624007176922165,-0.06304892689391549,-0.0008604301630487428,0.06485524398830526,-0.03285590059882243,-0.03273870516820826,0.01073438052497451,-0.07151907456438422,-0.15962860949223223,-0.10136165631190455,-0.10698752063845433,-0.0877307642538193
0.284,-0.06657459130535721,-0.0636253610552294,0.003058007667137649,0.06659943373978133,-0.036643090364286014,-0.03244847287522282,0.012164106043033236,-0.06686344251428591,-0.1577275048749473,-0.10181325708445152,-0.10785550850133449,-0.09050800852554533
0.286,-0.07077718756174056,-0.060443896512873005,0.010770826813923148,0.0661721585487667,-0.04221790266906287,-0.027809597949510524,0.009585736835249003,-0.06490569395093052,-0.15396969791618814,-0.1006296559949689,-0.10800946323712811,-0.09307463960266982
0.288,-0.07010802913579141,-0.05545366746476134,0.015179397469340722,0.06326437623677236,-0.04375495890394311,-0.022871844556037753,0.003965393574617683,-0.06659137377407316,-0.1506791395036956,-0.09687074807056567,-0.10594096294757524,-0.09208812282598061
0.29,-0.06484193891061754,-0.050791663878238524,0.014556454570981484,0.05905128855065719,-0.04037201605071553,-0.01988160251489636,-0.0009647316379777929,-0.07121577662322263,-0.1490789985052408,-0.09194618776746727,-0.10092663220902896,-0.0871033704138216
0.292,-0.0608444455048681,-0.04883846104770994,0.012586784928131749,0.056758217098282784,-0.03715732528009728,-0.019061004552218375,-0.0019012675217854123,-0.0766666622402791,-0.14947756154690403,-0.08795070036370918,-0.09402675428337591,-0.0794388933804173
0.294,-0.061223657071911436,-0.04988615884776688,0.01203300310014047,0.057545411035729,-0.03719137913129815,-0.019878864694629277,0.0017538794043485929,-0.0807639096011842,-0.15154084525833678,-0.08584853551448925,-0.0875750812765519,-0.07097223500905815
0.296,-0.06285338631837467,-0.05232813644829202,0.011116159516533325,0.05904737617629401,-0.037733783306250226,-0.022141588935111332,0.008885576109551178,-0.08282508977858766,-0.15343944097617368,-0.08496342999615386,-0.0827434837849769,-0.06345789497623558
0.298,-0.062421240829416726,-0.05517655445684675,0.007477225904340752,0.05959555508726777,-0.035960345873547184,-0.025618646588771634,0.017302681097472423,-0.0840126001766756,-0.15370534791418808,-0.08444172816946559,-0.07917219807807131,-0.05839246760174031
0.3,-0.06093989915722635,-0.057797986198142075,0.0031370710076152625,0.0601938144113728,-0.03346863323237334,-0.028640727931079156,0.023731874812781564,-0.08486273785555361,-0.15340173126525342,-0.08447584041494054,-0.07715038455106514,-0.056686214003751775
0.302,-0.06114568442956717,-0.05920185345265378,0.0020895264968254232,0.061835329954665015,-0.03323920819121895,-0.029247725568470027,0.025875649695093487,-0.08373954546752704,-0.1536813727204307,-0.08519332053096186,-0.07784768377603765,-0.05777990700301086
0.304,-0.06308344449804669,-0.058741448145193366,0.004741654579304888,0.06323099176958134,-0.03524310176686112,-0.02741145689667357,0.024227285904324176,-0.08010618690933935,-0.15318022396346107,-0.08584990076030817,-0.08178229490129649,-0.06020160619071129
0.306,-0.06365018490851013,-0.05624017976961645,0.007750546106245223,0.062009965392747564,-0.03657187797440436,-0.024610895734134504,0.020805692255419086,-0.07674265032080033,-0.15055539210233954,-0.08596903087517335,-0.08761308522174582,-0.0629654394869345
0.308,-0.060783723558378515,-0.052532484540829066,0.008278963233102678,0.05813476549283046,-0.035110754701186554,-0.02250237497383979,0.01716367747316665,-0.07645173485410676,-0.14748298929687165,-0.08637272609239947,-0.09173569479359413,-0.06522383557904239
0.31,-0.056887893634025806,-0.04956262906643556,0.007181045930162381,0.054552636129152586,-0.0323808142745243,-0.02175104086489015,0.014129908105869149,-0.07937800750651959,-0.14744192472503934,-0.08858395250757586,-0.09121027612070197,-0.06566207298486842
0.312,-0.056329280095610064,-0.04838236017808497,0.007976300284900139,0.05366197414780493,-0.03216977248282861,-0.02111802095435025,0.012278424357194312,-0.08437882080570967,-0.15261950354568424,-0.09298346593675737,-0.08817190459086732,-0.06380595595137341
0.314,-0.05952114528170518,-0.04796469274058514,0.01192260233533547,0.05459798753328719,-0.035685892448614136,-0.019253959188834876,0.011814729270590208,-0.09007772307287158,-0.1611384180967004,-0.09770655758052647,-0.08797317842298714,-0.061374997719521006
0.316,-0.06200808730796444,-0.04673244483628443,0.015794176822413398,0.05476249698557416,-0.039575578510906394,-0.01695899941901983,0.012464807608895729,-0.09469044788484471,-0.1672215455391219,-0.10042243656026113,-0.09246627550713415,-0.06106578024485014
0.318,-0.06109631085169177,-0.04455072013532028,0.016947032641315682,0.053475007570896724,-0.040847677804090245,-0.015582286277200121,0.01390569276339779,-0.0971540022374862,-0.1667579779578007,-0.10105438153239127,-0.09840933332122134,-0.06348506687675522
0.32,-0.05977336971598139,-0.042769532461067794,0.01729426316448016,0.05277365598301692,-0.04098070592088536,-0.01481515195325379,0.015343039045574599,-0.09775544723850714,-0.1617761027146598,-0.10118265907876303,-0.10222890238632466,-0.06634155926935867
0.322,-0.06184431711639951,-0.0431349953291923,0.019093603582064873,0.05471196909361737,-0.042627983636904614,-0.014164909276412407,0.01508945099886815,-0.09660541624471264,-0.15658639685810258,-0.1012674496180729,-0.10346435671179302,-0.0674565236027436
0.324,-0.06732289455882656,-0.04671301897228671,0.021136362953843555,0.059432428497321096,-0.04597540358389993,-0.014412292925187744,0.012931750038126145,-0.0934152108390059,-0.15227412818227315,-0.10043169367721569,-0.10339267634093093,-0.06693442903149441
0.326,-0.07381092542612755,-0.0523630152939784,0.021907197328664266,0.06525123979737073,-0.04992695718313088,-0.015866035812736306,0.011564843477001627,-0.08986647394185986,-0.14853194917207874,-0.09865794599517062,-0.10300651159677203,-0.06627509140777708
0.328,-0.07887690143036272,-0.05719556998922895,0.021873503639623263,0.06972304484286607,-0.05317118280138758,-0.017753661246888493,0.013262484188567018,-0.08954165115134828,-0.1469295031823823,-0.0973109530630762,-0.10334203812626871,-0.06737133667274406
0.33,-0.08051872085460197,-0.05972929341511321,0.020827105574704362,0.07135742978180117,-0.053521562546712705,-0.020112250486298326,0.01745167680326215,-0.09364191392181463,-0.1481787064782386,-0.09729245086677303,-0.10482622134519107,-0.07099406813231712
0.332,-0.07769787399079893,-0.0608447110240944,0.01704578824978411,0.07046788798718219,-0.049357507948924434,-0.023538162467113505,0.02237748905066732,-0.09905320306171927,-0.14994521759783147,-0.09808230866455825,-0.10528606826561343,-0.07473799153755423
0.334,-0.07176513359241869,-0.06174289323722294,0.010423863246020524,0.06847560545405494,-0.042364563245678374,-0.02738133075630211,0.026567670150385143,-0.10207312052321978,-0.15012981949264145,-0.09909442786021129,-0.10194249288584432,-0.07484144406591249
0.336,-0.06617803246097098,-0.06268324927564191,0.0038109902386322114,0.06659144851263862,-0.03660618684079947,-0.030392502494912287,0.02917863974934969,-0.10190773234272255,-0.14877122616862684,-0.10098087524198136,-0.09607724388704622,-0.07059317205279195
0.338,-0.06328258677772083,-0.06320210913622767,9.526199797366217e-05,0.06490568993508948,-0.03415660390975431,-0.032235287603930775,0.030092586766042827,-0.09988656352235684,-0.1461329116435913,-0.1044496996737791,-0.09291247261693987,-0.06527835146637612
0.34,-0.06257222456974806,-0.06289557551699897,-0.0004825405153862901,0.0631984980552276,-0.033580054345980305,-0.0330170511613446,0.0293495513882821,-0.09732920977322725,-0.1423320410872194,-0.10786930472631184,-0.0960666062948146,-0.06329479628377074
0.342,-0.06327083310273021,-0.062473977838869627,0.000705296392068372,0.06275122579650984,-0.03335467391070517,-0.03276749988416158,0.02733854080721097,-0.09479357262317746,-0.13854647889189586,-0.1078276537518444,-0.10332909974863984,-0.06633158091285973
0.344,-0.06595142893692775,-0.06345041550500041,0.0025409097462967137,0.06537363872120318,-0.03418660379990586,-0.032290515169501384,0.025203423073320776,-0.09221420267700016,-0.1362475840405397,-0.102965577768477,-0.10877954580092114,-0.07121126247163068
0.346,-0.06965200325176601,-0.0656448617130455,0.004076031112860823,0.06954520409858429,-0.0365268809413699,-0.032633452627736065,0.023930906504517853,-0.08929251658948312,-0.13549120057901082,-0.0956619010677589,-0.1086914966246086,-0.07283857103855412
0.348,-0.07124537758088484,-0.06664547590740388,0.004611415587451165,0.07090224496408795,-0.038739950779701895,-0.03327330542740229,0.023545721686270334,-0.08656201145422261,-0.1351470332523885,-0.08966193111205718,-0.10418069277854483,-0.0701462575113846
0.35,-0.06981053836851492,-0.06545428118823435,0.004324313269437577,0.06832104893389743,-0.039200844974666416,-0.032983267021079864,0.02333496247031344,-0.08617082434104748,-0.13437614478295887,-0.0873818703046687,-0.09852309158781197,-0.06657842900703151
0.352,-0.06754588075396137,-0.06415036305870819,0.003373979373000011,0.06533254187834138,-0.037760450882766965,-0.0322570734025961,0.02278666738184529,-0.09020659279596159,-0.1328851346500563,-0.08860877160135912,-0.09371170104865184,-0.06426957387001019
0.354,-0.06617832042600287,-0.06431091042726758,0.0018964757423014296,0.06466260415856323,-0.035509320099108996,-0.03226904259498765,0.022420256337216903,-0.09797340706757508,-0.13088527237292136,-0.09102560758103864,-0.09017621357206536,-0.0618677016330726
0.356,-0.06601736602775617,-0.06431459593631829,0.0018711763752543168,0.06537293138873299,-0.034762064941577735,-0.03179949270599434,0.023198425125326307,-0.10587433189536949,-0.1294404898083504,-0.09290324119706568,-0.08850803368319171,-0.05884578837040473
0.358,-0.0670415457322187,-0.06202468002705907,0.005478948545293939,0.06543405213298845,-0.03717099769885053,-0.028670697989315864,0.025357875248593037,-0.10986154411680281,-0.12881204184999814,-0.0943759650689512,-0.08935566125263401,-0.05658454888742231
0.36,-0.06879224681194335,-0.05886135796022614,0.01067424502617926,0.0647371318993482,-0.04110363921245019,-0.02448170087688821,0.028048963916214236,-0.1082048641463213,-0.12722905068881174,-0.09575751963745809,-0.09124966968557512,-0.05463525035502163
0.362,-0.0702423781436329,-0.05871126685051303,0.012204245354225344,0.0650740544791145,-0.043016738526159705,-0.0238684158482033,0.029920071918276465,-0.10294962788968072,-0.12384435634357666,-0.0967036700926253,-0.09099745249270201,-0.051576765111193315
0.364,-0.0702547992871699,-0.06266939897463675,0.0078384521523645,0.06733821119141092,-0.04118279751098986,-0.028293287680362215,0.030237727299993234,-0.09826966994523051,-0.12084922254270225,-0.09678770175145009,-0.08784178997841405,-0.048997190292975785
0.366,-0.06812112128746131,-0.06684502074948327,0.001239275947612633,0.06932401070736247,-0.03689102980130468,-0.03370777637448084,0.02885684754728498,-0.09668490571585267,-0.12030711797476833,-0.09568211143313923,-0.08482891835634455,-0.04946861050197398
0.368,-0.06416794544601656,-0.06614398903990448,-0.001834786221855033,0.06750694532583078,-0.032912461206606486,-0.0349271273611471,0.02587979982848496,-0.09744085695344828,-0.12100248118155607,-0.09375218884811859,-0.08386706925687974,-0.05134508802063691
0.37,-0.06045880861894304,-0.060154670634266855,0.0008615308443834051,0.06189163086477271,-0.03163669640003884,-0.030853028983990442,0.022722414368830057,-0.09870583234421207,-0.12042952133389738,-0.09243132301549718,-0.08270901192702033,-0.05019147003486105
0.372,-0.05984449244017846,-0.053584474063537973,0.007097624484084452,0.05711182350233114,-0.03391842408053886,-0.02472132623106946,0.021304621603357554,-0.10060060099023733,-0.11861498329407509,-0.09291255232801451,-0.08004308536419565,-0.04612604373787654
0.374,-0.06235115030274284,-0.04975182664274984,0.013513771099720762,0.05631515841339851,-0.038412621316573824,-0.01982375863721863,0.021440841710963415,-0.1047227382492695,-0.11757053646165191,-0.09459974445039393,-0.07891060823509308,-0.04487453907708743
0.376,-0.06420418653521963,-0.04744230045739823,0.017594937490188586,0.05705510235613955,-0.04194591613682185,-0.016907441822711852,0.021809953452042327,-0.11028786082764401,-0.11734554263239727,-0.09548529218635189,-0.0808941098445791,-0.04892608401733158
0.378,-0.06260045232950996,-0.045899627511297024,0.017223455418932228,0.05617620274676028,-0.04148076592141792,-0.016220888970450723,0.022688257079477886,-0.1131467537301561,-0.11564658260182747,-0.09425790798889344,-0.0823810796060612,-0.0532641132201631
0.38,-0.05931112553683039,-0.048333918886867895,0.010969310286541172,0.055210635696167555,-0.03641713776472081,-0.019782686009725332,0.024619444538652734,-0.11016322595513997,-0.11135063860398638,-0.09123385669652424,-0.08055368846304886,-0.05332889991892846
0.382,-0.058062227941320196,-0.057289169639219394,0.00028849354269629135,0.05784911731056257,-0.0295907780367687,-0.028904046626221716,0.0259759101346653,-0.10316879212876982,-0.10614825197212506,-0.08730581249361348,-0.07816723100502686,-0.05115591540323261
0.384,-0.06013712068568125,-0.06862542508335995,-0.009057848167759496,0.06402994667593058,-0.025628464837810585,-0.039582481619690246,0.025270893076486143,-0.09763058387861315,-0.10335597486087034,-0.08396186885894837,-0.0795821206273397,-0.0502729689354452
0.386,-0.06375217427953858,-0.07435420130972714,-0.010852783269604881,0.06936783731853419,-0.026946075156374587,-0.044286449272323294,0.02412727389859378,-0.09746764590314509,-0.10518485998650132,-0.08401886360534053,-0.08519376904226539,-0.050559081903448454
0.388,-0.06691378531114431,-0.0719994053699841,-0.004980436637706855,0.07058067567396974,-0.031668761747084384,-0.040304305142898955,0.02499359432912494,-0.10159061436493298,-0.10969037848821621,-0.08920778099628345,-0.091495194064926,-0.05121012043767732
0.39,-0.0695839366787739,-0.06687570684256358,0.002911738300572769,0.06920972973538404,-0.036513594719923645,-0.03275751646510216,0.027897805413243732,-0.10617112598864543,-0.11245802493098903,-0.0967543900415983,-0.09542202259769603,-0.05355839305118612
0.392,-0.07237221503471952,-0.064077468936685,0.008485446498053538,0.0685215355915451,-0.04019354478319467,-0.027628914800740582,0.030664519557637562,-0.10942490462121046,-0.11252365223039386,-0.1016804950760151,-0.09744218019792691,-0.05827456047785243
0.394,-0.07413015416863451,-0.0631139580458814,0.011397104036206383,0.06879426648537812,-0.04249006551273105,-0.025899583358073255,0.030467775004769583,-0.11235163016912592,-0.11293479915470389,-0.1029009921370214,-0.10006802873193969,-0.06295064165920108
0.396,-0.07320963620179638,-0.06224908540305184,0.011653057777203383,0.06847062957832935,-0.04242115227189737,-0.02622152655843117,0.026179072959469474,-0.11524113477625635,-0.11507172791760056,-0.10373006244040472,-0.10442003735084894,-0.06435187770689826
0.398,-0.07052913013179256,-0.0625869745065998,0.008656827546022582,0.06778631528130846,-0.03973680453853233,-0.028351839024361874,0.02048740057470054,-0.11658090795038362,-0.11709383441528713,-0.10678481463987081,-0.1099665976275743,-0.06226449295683925
0.4,-0.0685255278999064,-0.06452083891957594,0.004404071132898116,0.0675936487255559,-0.03659474734526146,-0.031051319693035824,0.01780541679258484,-0.11612712408099643,-0.11784613630500274,-0.11171680610072211,-0.11639372249855888,-0.06015196443678563
0.402,-0.0678741887610381,-0.06520246262293337,0.002859899511628588,0.0671392332636583,-0.03565308714568356,-0.031346950163103945,0.019891513810502442,-0.11564173656478759,-0.1177279165588148,-0.11647443471524162,-0.12268643029006826,-0.0611652041472168
0.404,-0.06728282941319373,-0.06286830995202547,0.004765454133621198,0.06577618892150972,-0.03678154808035745,-0.028899563458066085,0.024808929430210024,-0.11572507794188841,-0.11622045968645442,-0.11789983008536521,-0.1259619546170623,-0.06401335468652296
0.406,-0.06586067359712143,-0.05970494582200745,0.006839710764470475,0.06432517633530596,-0.03745536365731254,-0.027009966588759045,0.02925510321897793,-0.11500089694703244,-0.11221968060703194,-0.1134161511085904,-0.12453807352443556,-0.06449671505528239
0.408,-0.06497616954050349,-0.05893523575447214,0.0068702089060217785,0.06406100021109719,-0.036975571591332995,-0.027918104459373438,0.03131329256004073,-0.11309690051878561,-0.10643593553079032,-0.10463427221000712,-0.12018868571382782,-0.060476510240731994
0.41,-0.06706614271454087,-0.06192518797724142,0.005740224659800989,0.0660518690316627,-0.03755858089484304,-0.030802057617726534,0.03139509085719686,-0.11211683189180299,-0.10154936465696941,-0.09768262660091791,-0.11551480224561055,-0.05382730732984411
0.412,-0.07179942207197408,-0.0674302015817409,0.004511114533730695,0.07016024494337168,-0.040040939715156015,-0.033950104146008415,0.0306659888472489,-0.11424660084216764,-0.10010993038075597,-0.09787715234166798,-0.11144963695231196,-0.04832985180136243
0.414,-0.07489580890458247,-0.07161611742140317,0.0031061587352110417,0.07352008557546544,-0.04167154298801988,-0.03587375271983012,0.02978546317274622,-0.11883933713878758,-0.10199461203433605,-0.10382508807757698,-0.10768033770388552,-0.045970579278409855
0.416,-0.07291066006176242,-0.07134333728692227,0.0014052036676195745,0.07284400405002603,-0.03972087325177485,-0.03591484403606362,0.029480781117710457,-0.12276091640335124,-0.10385365222448897,-0.10852603839929223,-0.10382248953641704,-0.044798740531242415
0.418,-0.06831899087376482,-0.06889366079589146,-0.0005678701207258082,0.06972038459098064,-0.035344559478271934,-0.03564608302563215,0.030099559933984,-0.12383055368838852,-0.10278466237215816,-0.10732479693051282,-0.10041993565402163,-0.04122062241016682
0.42,-0.06664101570133961,-0.06921062976565999,-0.0024811035820445997,0.06926180387141669,-0.03252485121883178,-0.03708337525212029,0.03000179987783679,-0.12325029705541013,-0.09987648202386842,-0.10266428483527539,-0.09867025681726933,-0.03462147755407669
0.422,-0.06916927693136526,-0.07153149374398621,-0.0023014345501563807,0.07192164948126961,-0.03408871658948378,-0.038401345500761574,0.026642077063591993,-0.12376244137148945,-0.09808381237877417,-0.09985074097626809,-0.09859405520553605,-0.02860886647524716
0.424,-0.07232455350573737,-0.06945939740322354,0.002989182592116753,0.07227168765063745,-0.03955275082782824,-0.03492258726573486,0.02028924080589166,-0.1257387913648887,-0.09815622489580168,-0.10028058043319137,-0.09876814316480702,-0.026954740003091802
0.426,-0.07292085086501385,-0.06072252621924576,0.012643986924353718,0.06731465272770969,-0.04542149058173429,-0.025948364974309572,0.015195001376656057,-0.12644967489366205,-0.09776092394256285,-0.1000747746640289,-0.09810224331804697,-0.02879580395137935
0.428,-0.0708890672485216,-0.05187214321928301,0.01989747477396468,0.06104865616707437,-0.04729981898660872,-0.017658782963388412,0.015630500615817333,-0.12385440944878677,-0.09343113960665636,-0.09470238134890283,-0.0961088776475267,-0.02929655544961664
0.43,-0.0682382235308365,-0.050934133966562975,0.0183283596393937,0.05942671431031459,-0.043914700103582005,-0.01697542243833135,0.02115445097728009,-0.11998866633771968,-0.08447884919174628,-0.08498947957092666,-0.0923262172422062,-0.025516714524894717
0.432,-0.06707424684943013,-0.05794506302623409,0.009791015061792412,0.06354234873724506,-0.038891912400944854,-0.02374449932352746,0.02684796449023591,-0.11920656641708277,-0.07561275110474272,-0.07785927206024035,-0.08806885687356505,-0.02015758255034552
0.434,-0.06782477122113925,-0.06559872978974862,0.0022824358289590257,0.06908830031451986,-0.03649670090670673,-0.031358479796068116,0.028289920160123015,-0.12311569910681358,-0.07300151783009222,-0.0791441862624206,-0.08675385038019419,-0.018221113036776208
0.436,-0.06888428653653893,-0.06804220006301366,0.0004682386859221394,0.07141457449355199,-0.036809627833804176,-0.034448597543966536,0.025843480868711105,-0.12817753676111682,-0.07717791537310241,-0.08682900143162518,-0.08934408592948805,-0.020585243414894275
0.438,-0.06923883519055588,-0.06601675415686672,0.002731162658331292,0.07022501263411506,-0.03790741016601962,-0.033005465488657015,0.02383865913099023,-0.1293468184100304,-0.08267327756174837,-0.09382749822500408,-0.09236890465882928,-0.023068037872234284
0.44,-0.07092044282834979,-0.06435706708157055,0.006184090214218973,0.06944168596059462,-0.04025372336086035,-0.03031694720256305,0.025767909675633516,-0.12580681511022695,-0.08444519336353867,-0.09518698324896815,-0.0928591309448872,-0.022007868284146734
0.442,-0.07517765984286666,-0.0666215917752206,0.00840747786980987,0.07191209660456918,-0.04391138239316807,-0.030155195616776494,0.030554446866451014,-0.12148568800264437,-0.08165615889380282,-0.09081149674175426,-0.09171482461944487,-0.017529424757940587
0.444,-0.07789406441285045,-0.0713660753396864,0.006581530763477873,0.07522125774155862,-0.04493459274713103,-0.033773282567949044,0.03367345118529716,-0.11995031051364292,-0.07639860871672983,-0.08429794749936359,-0.09130490491584334,-0.01133537373583182
0.446,-0.07483103777497824,-0.07377617061041448,0.0011561496879614833,0.07527365624023986,-0.04075542510119528,-0.03785897877905047,0.03258721318902446,-0.12054673118790087,-0.07133454485082011,-0.07967121165772058,-0.09233650187423316,-0.004985444413186772
0.448,-0.06920337941483719,-0.07212829126866284,-0.002898032592807182,0.07269200733901308,-0.035379757931657325,-0.03858136431217499,0.029982042902376882,-0.12048923582783364,-0.0675975248892315,-0.07749882973621047,-0.09296053050601905,0.00011463038959380881
0.45,-0.06789461359651544,-0.06996149549491358,-0.0020841594281955913,0.07175047665956662,-0.03438740555153009,-0.03659016877337775,0.029167623068586706,-0.1199184335809484,-0.06517112293715224,-0.07642315125397697,-0.09153591109643659,0.0031668610473758346
0.452,-0.07163539268967942,-0.06950949679789357,0.0022238992783838265,0.07312680882210114,-0.037944793783051704,-0.03411192914868192,0.028983036404386955,-0.122616588656566,-0.06556461362021374,-0.07801152039572452,-0.09061391998113617,0.003461614270199884
0.454,-0.0743538363929736,-0.06823885483641424,0.006447497776640415,0.07278839208514293,-0.04147374151692073,-0.0312808885474313,0.02742726017978275,-0.13033253681770138,-0.0701176325619114,-0.08428460547814651,-0.09397901987089312,0.0002490931043849934
0.456,-0.07259728895786595,-0.06537413750211764,0.0076662212623150715,0.06961233567605857,-0.041653648485693966,-0.02911394654521662,0.02647557604732015,-0.13850087597992708,-0.07508957740344815,-0.0914350364808645,-0.09964678143465754,-0.004494068234224931
0.458,-0.07062412345135329,-0.06471413363133534,0.006172522730523429,0.06807798335830237,-0.040257229466365264,-0.02977569902938937,0.02846889903359123,-0.1409083173623342,-0.07448625461952746,-0.0934093759497706,-0.10198284348611937,-0.005548897688995199
0.46,-0.07386238479526629,-0.06761715630428872,0.006211745963415743,0.07111996452309517,-0.04152776982966687,-0.031587589046450676,0.03142821784557593,-0.13756164672873283,-0.068653613311437,-0.09073596054100626,-0.10034910942806623,-0.0002468401650208596
0.462,-0.08088813007575511,-0.07056653095250581,0.010168263452279933,0.07586364048074298,-0.04605081465562835,-0.030971347067059465,0.03253518497378768,-0.13358996156414313,-0.0636189170024877,-0.08859132830202683,-0.09925697505636073,0.007384691238119937
0.464,-0.08554680927285448,-0.07223043525659502,0.013253818717745319,0.07875779193468464,-0.04940859216824487,-0.029941895782985138,0.03335754939914813,-0.13139925683123993,-0.06184853263011029,-0.08802327740583725,-0.1008721102574612,0.011689237806032008
0.466,-0.08573307232210647,-0.07632890719875916,0.00945472381114268,0.08093268154917865,-0.0483022815850441,-0.03429827148662016,0.037182119112388515,-0.12944593665199675,-0.06035369749887963,-0.08607662325483542,-0.10280976557264584,0.012475841118973425
0.468,-0.08491866994667108,-0.08438292463035453,0.0005939183500370085,0.0850254406352511,-0.044655192934435935,-0.043878215186262934,0.04301332430396436,-0.12742237467951628,-0.057217017723312176,-0.0821183001980875,-0.10249326664849276,0.013709795637882004
0.47,-0.08466110890595763,-0.09075941584596275,-0.006097724524605788,0.08899131255868745,-0.04152173999233509,-0.05106995892398958,0.04624968972209169,-0.1268881669146797,-0.05396601735813706,-0.07856686230029664,-0.10023162393683473,0.017118332273380672
0.472,-0.0822009000870598,-0.08909488647677423,-0.006925303821523567,0.08794947044036469,-0.03915197218043643,-0.05017856239275083,0.04417126278438115,-0.1282153493735337,-0.052721744532885736,-0.07820923919654464,-0.09864877628804908,0.020283501969606616
0.474,-0.07667319067105002,-0.08029986653783948,-0.0036419502648074946,0.08136130203110715,-0.037084443231961514,-0.04341771548144493,0.03795648649978954,-0.13077031796658395,-0.05480274884902613,-0.08304571205492235,-0.10050794269531292,0.019862422702287955
0.476,-0.07175072369867021,-0.07092022738443314,0.0008402722749699761,0.07413403068422537,-0.036317988712329496,-0.03664441783013899,0.030662801563973753,-0.13418583032566117,-0.06010260094034606,-0.09225156951587125,-0.10615797546841117,0.014920969073337596
0.478,-0.07069440088232366,-0.06623958333009089,0.004467815809363057,0.07087624631653602,-0.03751640622988156,-0.033324645944188575,0.02514036150222064,-0.13769668818515207,-0.06610527378829655,-0.10110260021760235,-0.11273209682865942,0.008029031464176552
0.48,-0.07269193705779867,-0.06718203304472992,0.005510777773244442,0.07188085285787953,-0.03942147443172386,-0.033778967705462404,0.0229131216581371,-0.13987008687270605,-0.0694097831111769,-0.10483318571266796,-0.1168579669595591,0.0033803535750401015
0.482,-0.07525138738040707,-0.0717591189176959,0.003485593279653155,0.07473952250752175,-0.04058701645061475,-0.0369005707589199,0.023946075590839697,-0.13964307908980153,-0.06871014439182635,-0.10301422794468623,-0.11768619309344742,0.0028073146278397017
0.484,-0.07722117801521707,-0.07689980776731753,0.00031770529597291083,0.07736482266209581,-0.04106332450232565,-0.04068327300146775,0.027275803535673944,-0.13710170000393093,-0.06548109662269848,-0.09859169075306554,-0.11641710564319503,0.003993430960445076
0.486,-0.07870996443074266,-0.07982223198264168,-0.0011103753405255045,0.07893354435861345,-0.041649951082235355,-0.04271635643582131,0.031306225401930544,-0.1333320176238985,-0.06211413724065743,-0.09415319766568868,-0.11418998486698004,0.0034279447153100404
0.488,-0.08076870234387977,-0.07985490476178375,0.0009167014114449532,0.07997567542455392,-0.043332532516988646,-0.04160548765796457,0.03371630448105688,-0.13004764040065603,-0.05983537897107782,-0.0907652843388849,-0.1114116675928715,0.0003976249063778244
0.49,-0.08458885017769302,-0.07809025249533057,0.006498952072308675,0.0813893306625699,-0.04712780742348898,-0.037566319399553884,0.03287374873110977,-0.12900190945944218,-0.05831032785880649,-0.08866152500373563,-0.1081131222027569,-0.002664903723603454
0.492,-0.08848826867462364,-0.0748665464805368,0.01364224640426132,0.0822235064389145,-0.05193869004339233,-0.03210655061795087,0.029907889718532813,-0.13054201449414848,-0.0570897669160036,-0.08754727137966888,-0.10455492707728406,-0.0031979006588596513
0.494,-0.08783623481881489,-0.06973172983918273,0.018234951270762332,0.0799520069590982,-0.05368287589444562,-0.027524797280191426,0.027668504828225696,-0.13329637110365006,-0.05674202945011201,-0.08741336167819604,-0.10168786361943637,-0.0011770083850265122
0.496,-0.08104013681420585,-0.0639779241051661,0.01738998888358402,0.07416823166593951,-0.04991802205855754,-0.02559672396717623,0.027253747796197613,-0.1359648704920321,-0.05785046463946175,-0.08864823815876403,-0.10032814559608054,0.0012484378161457489
0.498,-0.07345109040039785,-0.060855989696264226,0.01304029061104443,0.06855464996265594,-0.04410074506307276,-0.026178807100214706,0.02767173500045458,-0.13757344840262092,-0.05974339604231257,-0.09041879258415324,-0.10019263176389667,0.001990026328771692
0.5,-0.07183972521417309,-0.061715882448572006,0.010510812437242608,0.06715306523355272,-0.04210736708528514,-0.02707021047144014,0.028820089130117122,-0.13645360268681064,-0.0611495034204255,-0.09068011870249956,-0.1007436458143321,0.000506064565634625
0.502,-0.07644965814627692,-0.06382716683902578,0.01292393896453228,0.06959523036329492,-0.045530491075400414,-0.026097293864211262,0.031245294965194473,-0.1323318702203024,-0.06158349817518736,-0.08870551188198242,-0.10204942878169054,-0.00195916533891122
0.504,-0.0814742076678565,-0.06453342037428719,0.017217391794717176,0.07236349767665004,-0.05013223053622609,-0.024219386618887173,0.033137754739604806,-0.12807158035720292,-0.06159703316572245,-0.08628278636311738,-0.10376547109458438,-0.0033421978106205124
0.506,-0.08240925543514216,-0.06521377562065767,0.01738786987640182,0.07371749360460328,-0.050728151866092246,-0.024781166603283798,0.03215561067576837,-0.12609965773981213,-0.06170855915364051,-0.08540754146051896,-0.10459478854249683,-0.0026035349497096506
0.508,-0.08053154765980144,-0.06886510634028065,0.011687040262031802,0.07525673586048055,-0.0469961650369955,-0.029349767186395103,0.029939559176479127,-0.12586841633714912,-0.0618598965835113,-0.08613250054621667,-0.1044018841161835,-0.0007594979857279653
0.51,-0.07929115743733092,-0.07577533587317424,0.0034264758104353196,0.07854073325750636,-0.04257776535919973,-0.036624079388744915,0.030503368836374844,-0.1269089976716224,-0.06261917328400492,-0.08808257116258322,-0.10557370653178523,-4.85801239208742e-05
0.512,-0.07854553262166047,-0.08230799069018782,-0.003823574858077829,0.08150773300529093,-0.03931218482922407,-0.04392588641043778,0.03419026388337953,-0.13001876484012836,-0.06546036249517097,-0.0914009079631787,-0.10980300325038718,-0.0018295267169024369
0.514,-0.07594232854978969,-0.08346799561555425,-0.007509190421875635,0.08061145440324312,-0.036637430571677884,-0.0474731340853595,0.03654829758652107,-0.13423567047862567,-0.07055045024366974,-0.09465734732991393,-0.11465623209822344,-0.005197673306239561
0.516,-0.07208831468047545,-0.07821707579082543,-0.006087649900239954,0.0761966847003847,-0.03501902274447107,-0.04474033417340698,0.03419858794664052,-0.13686476072193904,-0.07535845696658713,-0.09540711225988327,-0.11591276759402455,-0.007691304945854601
0.518,-0.07043524979985237,-0.07206496357378692,-0.0016187004685557504,0.07285994770692787,-0.03554571916344883,-0.03868250584663046,0.02949773515412828,-0.1366512344968622,-0.07670243186868064,-0.09382864649385436,-0.11250005418072066,-0.00728551994529245
0.52,-0.07315859593127313,-0.07124564517339772,0.0018959198106076323,0.07410996502567117,-0.038017591777538745,-0.03524776314400642,0.027661672264953637,-0.13429817520342052,-0.0739067324954479,-0.09267381475481833,-0.1073792497920504,-0.00434591032851297
0.522,-0.07843773608068697,-0.07445518127296967,0.003968412074366127,0.07800577804256674,-0.04144040662558731,-0.03540763675597365,0.030728124430493383,-0.1305756525287366,-0.06908273931424377,-0.09303817214620991,-0.10376385718888885,-0.0015761019460519676
0.524,-0.08173499353549786,-0.07424396145961198,0.007493553028022354,0.07905070296922072,-0.04495299697766358,-0.03397343827156845,0.03565465449588342,-0.12558107924401385,-0.06479057616503983,-0.09265861725456219,-0.10213939886985723,-0.0012039363912141545
0.526,-0.08081591515903544,-0.06661111589907219,0.014213714866281636,0.0745674536651389,-0.04837233887289423,-0.027003170214626043,0.0379675390668012,-0.1201382625384041,-0.06243838731069025,-0.08947357745601638,-0.10181650511012741,-0.002910858948024555
0.528,-0.0783078674538106,-0.05584076785658266,0.022491922098513556,0.06771857574986098,-0.05200710002327605,-0.01729991704870275,0.03689438229531161,-0.11692445527633052,-0.06221428311577177,-0.08509140720387862,-0.10276279640319011,-0.004975126821383057
0.53,-0.0772300143968084,-0.049471642135063665,0.027908140084299062,0.06345606470712914,-0.05479883259595167,-0.01172251419954932,0.03589429755799969,-0.11828380006128696,-0.06326224169533029,-0.08334604447058573,-0.10431862328584827,-0.006245706995195589
0.532,-0.07641249960938763,-0.05035651635259814,0.02653341889450883,0.0631341871424563,-0.053991769563706535,-0.013780936985653846,0.0377605423172712,-0.12269915362593206,-0.06358828768191213,-0.0858065848319953,-0.10448444848751431,-0.006157010125895871
0.534,-0.07352329426516702,-0.05479602506726014,0.019630905063768134,0.06450301810850002,-0.04890883934259514,-0.019939825894649585,0.04116377111624947,-0.12536212268949748,-0.06104097878539048,-0.08946502842864969,-0.10165103436676012,-0.003790393130314295
0.536,-0.06959141007984629,-0.057288292304991155,0.013441936081457571,0.06503176681340478,-0.04320555961250907,-0.023726600771201204,0.0430070657872478,-0.12297149644980379,-0.056093779036993016,-0.08990203093740701,-0.09644753220025763,0.0009169185441567455
0.538,-0.06663918153472596,-0.054593985351337644,0.013025818769711907,0.06284658475238199,-0.04085778768006169,-0.02166899270137426,0.042438898209908774,-0.11679876091219438,-0.05206135248084087,-0.08610998653353565,-0.09123903057168235,0.00559664551731661
0.54,-0.06402069650349111,-0.046669328351356405,0.017857335796716337,0.0569654397466871,-0.041817148992385186,-0.014970168252971724,0.04139950964424153,-0.11032905397555523,-0.05016408762594206,-0.08001868924372564,-0.0870291644708539,0.007939748550524399
0.542,-0.0600369738446971,-0.03702775591428906,0.02302933558531248,0.049178604846745085,-0.042852765668241005,-0.00797184770948075,0.04249023608359355,-0.1044077510758034,-0.04664796685564953,-0.07245341390645281,-0.0820035203448851,0.009200361905578556
0.544,-0.054634706042850666,-0.030269288575083108,0.024176895933915036,0.04294512850003278,-0.041182505945949605,-0.004390995124222068,0.04724068083443435,-0.09675133468701153,-0.03776354578347891,-0.06298652168882966,-0.07439814137253797,0.012653308522039653
0.546,-0.04963327518032453,-0.026864635780661172,0.02266259404870062,0.0393133734684797,-0.037779248953954854,-0.0030575895473621325,0.055148878148784435,-0.08709997999320383,-0.02551130357760982,-0.053175342339931625,-0.06555859640395818,0.018995749681594273
0.548,-0.047127211951832726,-0.023684898623722823,0.023483988273130346,0.036793288971423185,-0.03631954210711237,-0.00017705949687885837,0.06303582684053968,-0.07902046504276616,-0.015413054087695364,-0.04638016305062839,-0.058773759440948856,0.025343000347923944
0.55,-0.046999070473384044,-0.020812723418523107,0.02626130871024898,0.03503131683802857,-0.03711678819904865,0.002921226147084822,0.0664535243083573,-0.07481673333760876,-0.010163245219032408,-0.043743276743304915,-0.0554175865849754,0.029054208339877423
0.552,-0.04672998881374329,-0.021964283949347647,0.0247791934143979,0.03517085771772052,-0.0361220719746198,0.0006223246741745514,0.06369267686630402,-0.07285602583542918,-0.007967391024651774,-0.04263545778463001,-0.053809973710374666,0.030782511737181915
0.554,-0.04458076869571758,-0.026088770058580388,0.018458054270066252,0.03627440597485344,-0.032296226452844294,-0.005958746376087346,0.057320601267427454,-0.07134718903216343,-0.006653162983811038,-0.04060561384708645,-0.05251940871097758,0.03219321283420975
0.556,-0.04158149725556,-0.025603969102053568,0.01595408083362336,0.03494142645843105,-0.030256277587677346,-0.00722834312852073,0.05042403057363146,-0.07126432449220252,-0.007440193821643359,-0.039858988220702815,-0.05287340784473299,0.03226101565976751
0.558,-0.039394633004643756,-0.016989378251076933,0.022434495607886056,0.029790925071252708,-0.03279905732936875,0.001117418823328286,0.04389096509676235,-0.07349944148156351,-0.012188546653478495,-0.04450869442468235,-0.05623884414446053,0.029086732661733204
0.56,-0.03760363283525365,-0.007115544030753875,0.030635663080192527,0.023684619517325166,-0.03593254098347604,0.010628577169434172,0.03810436831381542,-0.07460223151359642,-0.017642844521522337,-0.05252711466683448,-0.06027851487129525,0.024115689337877586
0.562,-0.03454457126175867,-0.0037389546560954424,0.03111487195276774,0.019963362584609574,-0.03463392777380087,0.012285269823901103,0.03392547145078187,-0.06890878111308724,-0.017172886220609706,-0.05538566442444552,-0.060804810772517696,0.02055224059173349
0.564,-0.02986476811141434,-0.0040571350561970625,0.02609185470493891,0.017890958372206268,-0.03004285081676737,0.009592134403611481,0.03152969298175977,-0.05649881203905779,-0.008961897244930954,-0.04873977223031822,-0.05674891557884187,0.01912830554614666
0.566,-0.02544639808537258,0.00046922359140850453,0.025838307889668597,0.014182834367632778,-0.02768880023198277,0.012445726541690514,0.029918329291897656,-0.04560426764966129,0.0016899258509126913,-0.03857964936004859,-0.05092951573584882,0.018948434341377395
0.568,-0.02398467531502088,0.010896270895907056,0.0344558682190803,0.008527206650794929,-0.0305546682746745,0.022603043562210632,0.027424908018001994,-0.04421912875859301,0.008763012523631734,-0.03300249444355011,-0.04630476972907959,0.020394966827637296
0.57,-0.025907531631482635,0.02012691589667014,0.04576799452511327,0.004047607461050005,-0.0363804913213477,0.03255422340878994,0.023049193859606708,-0.05271525658785787,0.010392290921226382,-0.03296100442737808,-0.04364112144192155,0.024111027637318188
0.572,-0.02868449935128737,0.022974185067688325,0.051949577497105576,0.002909995617935688,-0.04100039401375528,0.035950543516381085,0.01736196164330096,-0.06700132628771163,0.006671997792638784,-0.03519698195981645,-0.04296091417094591,0.028606472236801645
0.574,-0.030277494382982103,0.02031222065192656,0.051202784774091924,0.004794102941364498,-0.04229322845856055,0.033314506941897054,0.011588227927859636,-0.08330053277513567,-0.0026216139236543857,-0.038753722166153214,-0.04446698986627871,0.03120851666160857
0.576,-0.03109537797010712,0.01485164467743484,0.04632094442068619,0.008698900209255102,-0.040534958470621496,0.028182802344588184,0.006517772783668146,-0.09712086959032637,-0.01543272610384336,-0.044300007701730204,-0.04734920055832744,0.030623508124110774
0.578,-0.031960492354206164,0.0075159878940806325,0.03942897701088205,0.013777849170093415,-0.03684818553679834,0.021735666952434302,0.002114566015395109,-0.10368116433313664,-0.02613867268804514,-0.05105598389496641,-0.04991031177530655,0.027865848241733875
0.58,-0.0321254435975626,-0.0010982184706539518,0.030949438769502274,0.01839433892375059,-0.03225884037225119,0.013502132778986261,-0.002224899720494408,-0.10267590925849658,-0.03055139840124334,-0.057034811816902405,-0.051132079808552854,0.025519861368085588
0.582,-0.030408993670964193,-0.009138408897378545,0.021648887639230015,0.02081911111449236,-0.027265261752519226,0.004641373889802559,-0.006555705055692421,-0.09964346273403385,-0.03128398739343529,-0.060861699406383855,-0.051855301977290144,0.02499041346987812
0.584,-0.028050474109072937,-0.015755532474807363,0.013129223152769232,0.022126837297410804,-0.022506415907437342,-0.00282603474247959,-0.009554729774844561,-0.10033019494437594,-0.0346719430988524,-0.06314734163039838,-0.05436782143178437,0.024378137091742153
0.586,-0.028471882705203573,-0.022175628744833597,0.007058415960105184,0.025607950591303927,-0.019673774196321575,-0.008333295846145288,-0.00898791693218462,-0.1043363234932604,-0.04212434749831941,-0.06581709683521678,-0.05943050668486466,0.021358423809332176
0.588,-0.03292555413241215,-0.029334960324744974,0.003815016257422915,0.032194429548031304,-0.019837044834692535,-0.0128200418624991,-0.003897111966462698,-0.10643146714682014,-0.048275084902202885,-0.06908637839796465,-0.06455789343647164,0.01692019737957982
0.59,-0.03772068956046597,-0.03584597255523496,0.0016549551651118305,0.038412084203864716,-0.021114132990903856,-0.017271169442658697,0.0033511941142580757,-0.10393504027121578,-0.0483552669537287,-0.07043020524470435,-0.06679051711679838,0.014098981520923384
0.592,-0.03741693435789424,-0.03841918679997256,-0.0012313576138525265,0.039460846777006495,-0.0200560623762075,-0.021076445728518377,0.008869261977263941,-0.10010430514194801,-0.044297110895855286,-0.06862313822604543,-0.06576968026118694,0.014536743691884445
0.594,-0.031023644914680168,-0.035534119900296104,-0.004510824002037597,0.03441768311955821,-0.015658896044669336,-0.022596062028979968,0.011772366826930985,-0.10012008258317888,-0.042245314606781534,-0.06729386382231212,-0.06359730420707996,0.017097456364154568
0.596,-0.0239689203322846,-0.0302223243576512,-0.006131903470122729,0.027832792700582882,-0.011264241088572916,-0.021319568143531645,0.014681249071257802,-0.10556604599696019,-0.04599825867686273,-0.0714400877637295,-0.06323937337214403,0.018344243052866988
0.598,-0.02308237570995382,-0.026942447773380156,-0.003801573540865747,0.025385831725814108,-0.011654617522498353,-0.01798432278405589,0.01829775202889498,-0.11348948292209457,-0.05512315464439547,-0.08158190995135917,-0.06715987298861319,0.014549895784545052
0.6,-0.029878012093324337,-0.02744651700025034,0.002393670005054983,0.028928232700561732,-0.01771397550108564,-0.014071110033068405,0.019069745492460325,-0.1205435021965636,-0.0673587160904281,-0.0940408311598203,-0.07582653737129284,0.00482359352401461
0.602,-0.03936805889690922,-0.030970519701613453,0.008347701239731213,0.035791784481660996,-0.025045079355057523,-0.012142033953621465,0.014955877733106557,-0.12633457618106833,-0.07951057370951574,-0.10519032667940532,-0.08667314281636804,-0.007883557347623228
0.604,-0.04576155574048874,-0.03653364590607157,0.009224730063977735,0.042125592114317746,-0.028515236045003604,-0.014480281556393177,0.009523940918316095,-0.1315763026309962,-0.08780948454332785,-0.11297047614073913,-0.09549669548345363,-0.019089893000179863
0.606,-0.048096737705320865,-0.04401922619769426,0.0041031646910280415,0.04675920106401542,-0.026999376886387077,-0.02090797205975214,0.007339121732190188,-0.1355304384573485,-0.09040885144704594,-0.11647325686397941,-0.09969568381328074,-0.025576533471239945
0.608,-0.049266438051705136,-0.05248942435151645,-0.0032309441142186757,0.05089740786382108,-0.023741097868727593,-0.02856549858660419,0.008293258742852947,-0.1375098813092664,-0.08898394938191816,-0.11645991490663381,-0.09995965314152983,-0.027119679271578778
0.61,-0.05106269539728715,-0.05884106215081467,-0.007917002617837114,0.054709536090148475,-0.022513107052720107,-0.03399636182066519,0.009179932491766839,-0.13838679142114146,-0.08660308014343635,-0.11461331600550488,-0.09843147101088393,-0.02611767392277878
0.612,-0.05188216155619019,-0.06048054882867856,-0.008936931782584801,0.05647675967444311,-0.02323633152797257,-0.035825205005688046,0.008728089857159201,-0.13896964668899164,-0.08498582093820006,-0.11177537049921397,-0.0958964923396503,-0.024680091256881725
0.614,-0.050305140617421196,-0.05828185157770164,-0.008400635249318734,0.05541934981456991,-0.023567007406822483,-0.034937807848386494,0.00818911476968663,-0.13962271494077763,-0.08507459966452181,-0.10882500321831337,-0.09242756575919796,-0.023253471415980678
0.616,-0.049750174424940646,-0.056225235871968635,-0.006725160816325822,0.05437964879905698,-0.02435364324993975,-0.03305333274465062,0.008748766019847271,-0.141397654768852,-0.08828657407423923,-0.10768006005694597,-0.08967714169696951,-0.02243307049190069
0.618,-0.055147461244608766,-0.05864447907147936,-0.003468025512520056,0.05787182638432252,-0.0283671829448285,-0.03246921978768375,0.010966829284176213,-0.14443767171359398,-0.09460877230366657,-0.10930168448089693,-0.08988977139421225,-0.023355256771247883
0.62,-0.06537195516446306,-0.06582253843689877,-0.0003061708579533827,0.0662608408379632,-0.03479247562980719,-0.03445057015867064,0.015201758654287762,-0.14653820403164503,-0.10107872369121756,-0.11259537341459483,-0.0934353522017698,-0.025888813016245328
0.622,-0.0744386118969595,-0.07231123834036257,0.0021881169276282363,0.07437198859346908,-0.04064950987550668,-0.03636284905810016,0.020688716778412507,-0.14624518051576893,-0.1050328003240093,-0.11652852128910478,-0.09897810402573483,-0.029265174711432456
0.624,-0.0796908958893146,-0.0729406750148748,0.0066817257977017245,0.07803878245392949,-0.04568909287930013,-0.03409738132763734,0.024405123073863496,-0.14621180949605445,-0.10789590629246883,-0.12186609612854021,-0.10561370810910567,-0.03450524165870527
0.626,-0.08407569138183855,-0.06983275012699168,0.014078292742037828,0.07933641995286632,-0.05138393022525152,-0.028508441234890256,0.022890830679912946,-0.15035853668552407,-0.11240720430580813,-0.12931084080085536,-0.11333488232500703,-0.042622653072533434
0.628,-0.09064478313687092,-0.07030707537775871,0.020162162542258433,0.0832118765381511,-0.05697219569579758,-0.025939125757603095,0.017479108943016807,-0.15747731918671853,-0.11680860297881127,-0.13645949910875535,-0.12061832878931969,-0.050500266144168186
0.63,-0.0979549499255914,-0.07844993169967618,0.01957050064322675,0.090895833465878,-0.05939787908728105,-0.031185403533666868,0.014495102352143761,-0.16190082335837105,-0.11727219521918447,-0.13945104811940803,-0.12421574958134046,-0.05346095843401758
0.632,-0.10128926622827002,-0.08996953087657183,0.011828991059383108,0.0978398640352083,-0.05662575135165664,-0.04146849525076396,0.016788227015884408,-0.16224569374705744,-0.1157895025364877,-0.13851020952403914,-0.1237432042539118,-0.05206622063500723
0.634,-0.09813931599247254,-0.09601026867516596,0.0028239229206366533,0.09859333497731144,-0.05048206572568883,-0.04872745446879209,0.019963315505400068,-0.16341887366668956,-0.11828960868155242,-0.1384194936134162,-0.1232307550668858,-0.051325285720268406
0.636,-0.09204513505364861,-0.09303443138530294,-0.0006259591467359333,0.09380948461564292,-0.04586280991470612,-0.04833470211322017,0.019807621758054922,-0.16761674928906184,-0.1250091411254781,-0.1421046884929206,-0.12593747664339994,-0.05373917139178176
0.638,-0.0888896747737022,-0.08634424406324387,0.0024361692377607275,0.0894445874395602,-0.046126328306607706,-0.04325210181407354,0.018069911297568037,-0.17044191143311976,-0.13004660715694918,-0.14740257747979832,-0.1309067492911647,-0.057464070135380504
0.64,-0.09053910727977987,-0.0824789064991428,0.007833243128343298,0.08910107055141024,-0.05036010148666979,-0.0385919294717663,0.018873592241124636,-0.16817619411784052,-0.13037020001953648,-0.1514407907087921,-0.13536588166836472,-0.06033114462549264
0.642,-0.09491593909915015,-0.08239705053872262,0.012602172065298579,0.09126922848160875,-0.05588462245010547,-0.03591301637784092,0.023054731802530207,-0.16293261978608253,-0.12918180604214105,-0.1544041978336464,-0.13766312898187233,-0.06239279917458486
0.644,-0.09967783797742684,-0.08334620935890147,0.016889029722788083,0.09325216278212174,-0.06093236700360234,-0.034218277036535225,0.02763841208017912,-0.1590747695721754,-0.12991045268354678,-0.15711196233975627,-0.1379652779142794,-0.06444002913987977
0.646,-0.1032427843431329,-0.08324885057978812,0.02080745414762749,0.09416104134164623,-0.06449376761444114,-0.032600977524253325,0.029243140912738025,-0.15857964733119104,-0.13142644698202088,-0.15801654182252728,-0.13777520943888974,-0.06615758633577723
0.648,-0.10435804951834733,-0.08145430697354661,0.023416132550000513,0.09406190580499069,-0.06596060256411572,-0.030328441695078232,0.0269674800181592,-0.16054534591112712,-0.13067524527619054,-0.1553811219367755,-0.13818030880080903,-0.06690257034206727
0.65,-0.1025672252951285,-0.07780952635553648,0.02445446837234362,0.09239366484595747,-0.06540919234329874,-0.02697307498239705,0.02305157013326923,-0.16257973350897142,-0.12734021243254676,-0.15058141144097406,-0.13812766284774622,-0.06666775067791407
0.652,-0.0990780952365658,-0.07296964709511303,0.025015470382170616,0.08869792950154946,-0.0637659765064995,-0.023329156495854257,0.021128036040044724,-0.16273877325971267,-0.12418002633339187,-0.14665757239241628,-0.1358449668993572,-0.06542416066967682
0.654,-0.09624377413434188,-0.06866508074450592,0.026252676565368168,0.0842603820691327,-0.06247275019743765,-0.020950703795506936,0.022808146306315686,-0.16124654700814764,-0.12375378827816222,-0.14492922528908841,-0.13196321523084661,-0.06320914036111158
0.656,-0.0956782997935593,-0.06726901429931156,0.027431741909771004,0.08209587887121535,-0.06226530365187765,-0.021203519407557863,0.025994466817110314,-0.15952505701628308,-0.1258816089810832,-0.1450574293964902,-0.12941633108705636,-0.061008459156649146
0.658,-0.0971837061983463,-0.07079443178035243,0.025983583179097037,0.0846865732618179,-0.06232446787374557,-0.024792690457692477,0.027471514900876678,-0.15782309215748472,-0.1284121961607847,-0.14664459737200986,-0.12959614753749252,-0.06000270338896763
0.66,-0.0992362906161868,-0.07808157948480432,0.021181084623901947,0.09065747063479888,-0.06158146621436156,-0.030295727132092852,0.027191224232342527,-0.15527671272339677,-0.12964071380155032,-0.14865363694028305,-0.13012944187267592,-0.06030301076639564
0.662,-0.10072759909389978,-0.08368774910377087,0.01719639295824514,0.09505927370852897,-0.060946552279811314,-0.033531010747403514,0.028254416695200003,-0.15228225058546882,-0.12922067755371802,-0.14963603178175391,-0.1286949108294434,-0.06196956369500624
0.664,-0.10210511215965826,-0.08281595461476078,0.01935470989557497,0.0946635927417324,-0.06272135154574231,-0.03115572140248437,0.03167522323407777,-0.15132851581764614,-0.12790799303500414,-0.150082647416581,-0.12729035159054994,-0.06587082611317392
0.666,-0.1039677311153437,-0.07682093874910115,0.027103210680628972,0.09143305871311651,-0.06722773740140617,-0.0248715495591059,0.03377384367089533,-0.15402670181085523,-0.1272409266599068,-0.15159329381316236,-0.12899656028412845,-0.07116899929157658
0.668,-0.10581376914396264,-0.07151304489498106,0.03424692411666982,0.0897013635657807,-0.07186182816122796,-0.019696865538489143,0.03121371385546636,-0.15814712700983993,-0.12803045148131534,-0.15350106296128288,-0.13275043893225247,-0.07406693806487215
0.67,-0.10695430482404578,-0.07080454490899689,0.03614741300344991,0.09122438066140867,-0.07397202941026372,-0.018603059223270626,0.026750737615177184,-0.1597345685876726,-0.12912107645500787,-0.1533155407667206,-0.1346298503937348,-0.0717498114224298
0.672,-0.1071927376041121,-0.07410665729108504,0.03313573878792458,0.09413447000507359,-0.07296528653480071,-0.021095411386605152,0.026276239183158565,-0.15796200361253113,-0.1293102850483637,-0.15061324806833273,-0.13263787005769867,-0.06608264613459547
0.674,-0.10650955587866968,-0.07885011618761566,0.027805150104744818,0.09597216206157591,-0.06980167862220323,-0.02561453668606364,0.03050686042410055,-0.15584109375992794,-0.12934750948089774,-0.14826666944846714,-0.1289927235804037,-0.06159656163036742
0.676,-0.10531213195587667,-0.08275095540568955,0.02288036803449192,0.09624193074801449,-0.06637034472310575,-0.030245082451191844,0.034269910367388044,-0.15566318619527741,-0.13007450749859253,-0.14875820718330163,-0.12788839896144646,-0.060528344880373564
0.678,-0.10478372262366852,-0.08425718622278915,0.020937380835113633,0.09609242058065082,-0.06495040811354988,-0.032310556937074034,0.03447080503869384,-0.15597055155460898,-0.13049594654164734,-0.1508549030846919,-0.1306205272365588,-0.06139675902362996
0.68,-0.10570005817023646,-0.0830710002491288,0.0228834765140381,0.09619575068058826,-0.06624510438923366,-0.030393356890657745,0.03351869932653893,-0.1541089293958555,-0.12922156462054757,-0.15139504593001557,-0.13388047530611225,-0.06227306637173588
0.682,-0.10717232830974292,-0.08035540545307537,0.026797130283622742,0.09571769601406437,-0.06835701902700252,-0.026271807941756098,0.033911657315617356,-0.14959930959046827,-0.12618886786180827,-0.14912098310032842,-0.13394921943595064,-0.06330023816542132
0.684,-0.10756412279975225,-0.07772018843187739,0.029679618350217943,0.09387229570910678,-0.0689743078152254,-0.023117529688278442,0.03449421738300242,-0.14442875338488673,-0.12287868875754968,-0.14554750067440847,-0.13132134738341558,-0.06542039370993473
0.686,-0.10612585722277744,-0.07554095923395111,0.03038879061409437,0.09104333691062812,-0.06781616820132011,-0.022008153690279388,0.03356986057187207,-0.14165396513878736,-0.1217103550966164,-0.14288388335665164,-0.12938904596407022,-0.06858205301929621
0.688,-0.10369117411305169,-0.0728656905475085,0.03054157526982126,0.08809999446829034,-0.0666202148192575,-0.021292532776898753,0.03127662573323938,-0.1433009096734229,-0.12429326539922746,-0.1424952658663978,-0.13017798922077103,-0.07202608990232856
0.69,-0.10225211127738773,-0.0700865301859222,0.03179900320532879,0.08630886531817718,-0.06713646363072749,-0.019898392285268716,0.027981693372985807,-0.14843417111437548,-0.12976236844744166,-0.14501062762580375,-0.13349637792314223,-0.07481059815453789
0.692,-0.10317101759543794,-0.07025144100356577,0.03268937926510909,0.08726311015868086,-0.06886601808237999,-0.019865108018353783,0.02457634786633072,-0.15342441839188717,-0.13526072086265326,-0.14975505001160025,-0.1379355181805963,-0.07563647655055347
0.694,-0.10593012864243606,-0.07580971665001646,0.030270541930590422,0.0914297539821384,-0.06952167862367015,-0.02387539469733378,0.023762751176418746,-0.1545580313872616,-0.13797859391982234,-0.1540605346782536,-0.1416521848407508,-0.07386400349521981
0.696,-0.10896616535662797,-0.08471285231276615,0.024842233392400683,0.09703948841578582,-0.06814456160097279,-0.03089800492626659,0.027969394794820378,-0.14984174200352127,-0.13623716924966345,-0.1551063022700613,-0.14424813527452762,-0.07105454905059296
0.698,-0.11162313241831053,-0.09104769164134695,0.021396921488187372,0.10123781527800318,-0.06707559904089003,-0.03558197648730953,0.03895207602332902,-0.1369540540415026,-0.12828608012839746,-0.151737704685948,-0.14662587377133823,-0.07028017944105878
0.7,-0.11593990528634837,-0.08964205561200922,0.026964253946383614,0.10284306977546818,-0.07135748945620395,-0.03195573608365271,0.05994286613858489,-0.11082095805493379,-0.11073479397529065,-0.1432989872634769,-0.14840780123327862,-0.07422842075842577
0.702,-0.12528375679017278,-0.07887823528133969,0.046711735231682254,0.10268740444727548,-0.08568552265253943,-0.016873644379985783,0.09187970490460666,-0.06714272115470846,-0.07988931466633044,-0.12830482815207434,-0.14815872982687475,-0.08413682175165015
0.704,-0.13903662073847084,-0.06010408599555516,0.07908022212843695,0.10061199426558695,-0.10898341405882098,0.008410156891016615,0.12707629882252566,-0.00895646163578499,-0.035570561535685385,-0.10438552414763018,-0.14391001720736343,-0.09709060809951779
0.706,-0.1491730384738158,-0.03799640470033593,0.1114380677022111,0.09443769634548724,-0.1306257760443534,0.03583558475514671,0.15248815849054145,0.05389481664717563,0.017938303380784237,-0.06781922096061009,-0.1300202115840962,-0.10301349630681562
0.708,-0.14381567375924492,-0.020143957109255962,0.1240583654236822,0.08217587936878291,-0.13466063743944262,0.05161509987063062,0.16072999249978828,0.11531090935928279,0.076764094605497,-0.014801755858816695,-0.09776007493162706,-0.08965439549404515
0.71,-0.11469137258962837,-0.011230897278647655,0.10385871482657112,0.06268121321319371,-0.1104487433883852,0.046042647191661325,0.15515608700776684,0.1831084388094083,0.14313038116541302,0.05539492844859586,-0.042320101744142136,-0.05264375186639976
0.712,-0.060400080299049794,-0.007773643903358031,0.05294972865677001,0.0338626409317635,-0.05825347999535588,0.021643964232824036,0.14296642912346608,0.27488485144418606,0.22483333323473703,0.14161104029801763,0.03484370214537854,0.00359719717770732
0.714,0.015733580424001,-0.00152870265924678,-0.01712181609341758,-0.006915497372228239,0.014565483029463793,-0.011167113826823399,0.1259723727424365,0.3989825080365637,0.3262613139480991,0.24360405926769282,0.1304244897024581,0.07388341312707583
0.716,0.10706571314013212,0.013562671098291942,-0.09363146743554382,-0.05964803025384206,0.09818246986206818,-0.04231198645992086,0.10012716263959093,0.538004553009719,0.43810344427875697,0.3576891291033003,0.24039585656505136,0.1561839763822141
0.718,0.20510621118373665,0.04097520196654807,-0.1644409901326076,-0.12209312622124666,0.18230877270711524,-0.063607831408626,0.06117143997569896,0.6538100403134928,0.5407915038112604,0.4744347437246516,0.3601817859728158,0.25089892700095245
0.72,0.3040677758202312,0.08510188785019124,-0.21925507322081056,-0.19385486588967002,0.2593150691418094,-0.06803971595428324,0.007952806551563671,0.7126564079911302,0.6223768150181158,0.5894522229700481,0.49076568388197506,0.3621627931024439
0.722,0.4017018001554463,0.14988687028478465,-0.2520570447127152,-0.27568702382061233,0.32538777229163085,-0.05133281002709703,-0.05751987299684773,0.7086417044638814,0.6889315403409392,0.7113920732987333,0.6408660724509965,0.49638557029019453
0.724,0.4935401495842052,0.23418627958576918,-0.259656049575495,-0.3641303191703455,0.37634078827987977,-0.012697537359812563,-0.12959059207139145,0.6640008836489472,0.7547145236107192,0.8518112426927181,0.8175699781159116,0.6554546952637826
0.726,0.5706497936115945,0.3311861508094072,-0.23969207954210786,-0.45090401186676715,0.4056582665289976,0.045802833064220734,-0.19926286000486226,0.6059758943549826,0.8259083173619297,1.0107462950918158,1.0163079289173518,0.8331608319182892
0.728,0.6273814428103351,0.43175378873606063,-0.1955355898856908,-0.528960749202689,0.4117911866747334,0.11789854763351638,-0.260349472166529,0.5456232319019324,0.8962639078863712,1.1751735579467106,1.2201953200644247,1.0168336618240348
0.73,0.6692976922043822,0.5246216061683125,-0.14439018292627703,-0.5959775770083171,0.40663838724046697,0.1893913890426621,-0.31819556397820226,0.4790044417247241,0.9542217490110059,1.3258719069465368,1.4059906347559457,1.1895679734565265
0.732,0.7078236774990897,0.5937115932224405,-0.11406518551178818,-0.649729397526349,0.41039861621573265,0.23883553056135215,-0.38684004364002045,0.39833948991668644,0.9870124658554007,1.4405591018667672,1.5499282924213873,1.3327712859178655
0.734,0.7458704560928675,0.6225071122941354,-0.12375739611636534,-0.6831792284544008,0.4340541117691744,0.24866889573535053,-0.47104299776340375,0.2963993121488013,0.9780402414996292,1.4923343183376043,1.6295807409550618,1.4292360727259636
0.736,0.7715159796412202,0.606274564886899,-0.16579709965343226,-0.6878864554119659,0.4676154720079395,0.21970067199414475,-0.555654740412136,0.16636690294602188,0.9069834006248555,1.45097450182988,1.6231089106994712,1.4651575706012958
0.738,0.7664509365148843,0.5598630041030564,-0.20687403876140117,-0.6621013711504546,0.48549029172104163,0.1752075115215907,-0.6198829288732001,0.0003736151855309195,0.7575074861683488,1.295199067347117,1.5140641927268994,1.4318599154220135
0.74,0.720629998247972,0.5095520946192744,-0.2109948355599776,-0.6137055460166052,0.4649314548840065,0.14672891456535012,-0.655897233446226,-0.2062252033832104,0.5325952479537499,1.0358267296326626,1.306926682528058,1.3300588473582524
0.742,0.6400807112609849,0.47142793061042526,-0.16846266699997986,-0.5536799008567287,0.4039031654998951,0.14842667749531552,-0.6667376356066296,-0.43971152080336195,0.26607043367536415,0.7256685072140566,1.0378565998837819,1.1745589245505788
0.744,0.5399428436091559,0.43923643623196046,-0.10065318479244796,-0.4868875446657713,0.3200192855556793,0.16704568854775473,-0.6547549559041115,-0.6676253362069938,0.005178906228216653,0.4281110032030871,0.7572185954576841,0.9908637294624811
0.746,0.4295657600939646,0.3988532596278858,-0.030809500972292382,-0.4113608150018082,0.22917250809544987,0.18316895818911577,-0.6208338102646362,-0.866129941323751,-0.22688155316827763,0.17001725105758334,0.49673452302636467,0.8025961152470082
0.748,0.3098382500452626,0.35025676493233104,0.04020046426515684,-0.327589180262894,0.1326612270995721,0.19519196474486403,-0.5710496213163784,-1.0315006814623786,-0.4344367362055342,-0.0578907074585242,0.2643184140073914,0.6234574335688481
0.75,0.1871410801495009,0.30838406211981,0.12079386552630343,-0.2459801341047268,0.03036891369336872,0.2143440571376256,-0.5171523893838725,-1.1542388053098818,-0.6089481515410228,-0.25271377147097573,0.07039969121419139,0.46328206652648624
0.752,0.0788754463789762,0.2848415247251037,0.20523391713524844,-0.18057566273830666,-0.06555618160803832,0.24411447460489447,-0.46801131839170396,-1.2069942567415606,-0.7127899227322778,-0.3790407205298099,-0.061434237926465074,0.334814194421786
0.754,-0.0008004386630180373,0.274521626448948,0.27452636466097025,-0.13573643335903024,-0.13876592737696292,0.2731951191249344,-0.423812458804962,-1.1757659601162835,-0.7213382790317662,-0.4107259338737889,-0.11999669975119193,0.24576574251508107
0.756,-0.05151099286788327,0.2619424016358841,0.31288097923591496,-0.10436136080862864,-0.1822505587741051,0.2860346486957855,-0.38267472213100123,-1.086608723686856,-0.661185434434949,-0.3717877857627545,-0.12755070307671995,0.18857966480370925
0.758,-0.08036512996815412,0.23729898876167935,0.31739825425111645,-0.07829598393951921,-0.1992056788784585,0.2758151623606251,-0.34830658837294975,-0.9860389074124055,-0.5885661834849926,-0.3179987381495911,-0.12198172595870439,0.14675567075699703
0.76,-0.09353895638145539,0.20282446270796367,0.2963181113665008,-0.055126156147664744,-0.1965726883934108,0.2475617398447126,-0.3239862312255077,-0.9009262841437923,-0.5392819443869694,-0.2877349839416585,-0.12475600799204134,0.10942668538772603
0.762,-0.0951793839809062,0.16621314691989655,0.26144391040030474,-0.03611561838355526,-0.18073716546486077,0.2115758978665737,-0.3037921272102127,-0.8245949004606022,-0.509306181002624,-0.2809998475571855,-0.1338778933039304,0.07553411323107434
0.764,-0.08818069005190254,0.13190990742158515,0.22011535727870574,-0.02210975992627647,-0.15578135314323321,0.17436326811983185,-0.27865185190837743,-0.7370454850897329,-0.4765882069467863,-0.277998342471586,-0.1399167245547917,0.04785334808856757
0.766,-0.0739132497014399,0.09915002916052353,0.17295548312307132,-0.012319432504196327,-0.12348989316574863,0.13539653250460099,-0.24778360867446464,-0.6314111740474608,-0.4303468774322021,-0.26592631331386174,-0.13897900724702925,0.02862198316643174
0.768,-0.05412033802821457,0.06691348221972453,0.12079374916105551,-0.005545283713067017,-0.08666816246671442,0.09353474301867934,-0.2172122148374508,-0.5209763848637619,-0.3781766756633935,-0.24715008164971633,-0.1334624453078112,0.01854750914810341
0.77,-0.03401461918538067,0.03852562082742757,0.07230231486307699,-0.00113810732753629,-0.0526412055686267,0.05466021291591712,-0.18979425730733773,-0.4245401047198016,-0.33170765314352957,-0.22892542598415996,-0.12743824869516557,0.014977682202553624
0.772,-0.021084553041150523,0.020186214423828647,0.041138547122568064,0.0014604904238502596,-0.031182487424942926,0.02936677505246376,-0.16206381326818012,-0.3486094475489296,-0.2923662459786126,-0.2110690415468841,-0.1217973191371446,0.012587316465964395
0.774,-0.019392827078470374,0.015318402505815955,0.03473216162360385,0.00295146362403617,-0.02756295669737361,0.023262074853219204,-0.1302241425630753,-0.28663016830121113,-0.25378722914541,-0.1869570261312338,-0.1135648413320868,0.008570666093310055
0.776,-0.025159871447003726,0.020847950075383256,0.046332094032037446,0.0030595871490820474,-0.03681540867657373,0.03131547837058692,-0.09593621369590691,-0.23245967915084545,-0.2132634084676901,-0.15555521094683475,-0.10055563082752247,0.005170456010250647
0.778,-0.029396549272720583,0.028652672245632376,0.0587378639803529,0.0009881308318812185,-0.04574074854995386,0.04126990948135823,-0.06509538596908851,-0.18728752324441314,-0.17485463915903066,-0.12515233390449831,-0.08466085184142738,0.005530376121929856
0.78,-0.026976334487705228,0.0300282498140145,0.057716528322691966,-0.0012601983412969958,-0.043846637500978,0.04204404190491663,-0.04248900921434299,-0.15320540870235996,-0.14352254491343272,-0.10312372522813398,-0.06994193529214607,0.008857243970688915
0.782,-0.021419928874400293,0.02063741024921953,0.042341307918612854,0.0008604120683847834,-0.032306773261695745,0.03058451658068626,-0.028622347436260093,-0.12693375658566547,-0.12027487198475129,-0.08867012360727086,-0.05919632906843048,0.011219766080933669
0.784,-0.01862052480217339,0.0035051185275546295,0.021964308284638204,0.008512418256386859,-0.019784682351706537,0.012425976338661781,-0.020196659523045793,-0.10326348151386042,-0.10287304668568631,-0.0772617548997775,-0.053108681410107814,0.009682565994303406
0.786,-0.019603134840625366,-0.01336796218276295,0.0060018268931724145,0.017386700429092402,-0.012347658583186483,-0.003798860908596137,-0.012905433874183449,-0.08143290993629244,-0.09022329570949418,-0.06750310285148625,-0.05184120412100243,0.004222081485696191
0.788,-0.02210377858990578,-0.023452630464671113,-0.0013833300126328786,0.023235105602964153,-0.010763326153317088,-0.01251477278084906,-0.00492071616900964,-0.06438789739342088,-0.08328951493901708,-0.06189974929297205,-0.05527433813826737,-0.003173097799687724
0.79,-0.02480900579892224,-0.026246963437852013,-0.0013525067463497117,0.026012665355227657,-0.01310960921228924,-0.013997149433999663,0.002509826928651182,-0.052832014007111044,-0.08035732701175556,-0.061867637358244035,-0.06131060979021514,-0.010436810178000824
0.792,-0.026852269415839566,-0.025764518423427835,0.001026804764343698,0.02741106551342975,-0.015901534127462213,-0.012774936673193502,0.008150814749350461,-0.04349921365099725,-0.07650829279478907,-0.06386001258931685,-0.06617490226070086,-0.016714205308428653
0.794,-0.026946745099753647,-0.02532995545207965,0.0012649268467915756,0.02788207106369042,-0.016221733988664815,-0.012663298242589313,0.012659617241968804,-0.033584537056951524,-0.07006563882901448,-0.06267127505457652,-0.06747541941141423,-0.021384144686580654
0.796,-0.02527978170245701,-0.025607965394874786,-0.0008226474328970497,0.02759504497798567,-0.01426868557921046,-0.014166378520590706,0.017403869418802197,-0.02385745388978694,-0.06410919301509801,-0.05742752113473868,-0.06604375882834053,-0.023212565010604792
0.798,-0.023074863466782444,-0.026579847294373855,-0.003924300274303975,0.027150932938762418,-0.011187011233572394,-0.016775008718894754,0.022970401056601236,-0.016149826591126633,-0.06031323701615454,-0.051386140198032754,-0.06408705417428942,-0.022386878876668383
0.8,-0.02063227766439933,-0.02817121838429116,-0.007971751173394782,0.02639247930869774,-0.007040161529405833,-0.02007527852673717,0.028324627023974876,-0.010058617328996466,-0.056659314201662245,-0.04702871194454003,-0.06248602387969819,-0.021507511745400998
0.802,-0.018710102006178262,-0.02993033750498247,-0.011939445395661264,0.025271963097161617,-0.0032219656652545344,-0.022660511181454488,0.0316588763352166,-0.003755661078856158,-0.0518362825472115,-0.044553287681928073,-0.0608547336818219,-0.022602666760294345
0.804,-0.01951661285814369,-0.03264754195742659,-0.014077585491210248,0.025869117287991322,-0.002418599464082108,-0.024040035525122704,0.032588788139558275,0.003116527969653685,-0.047593357554699116,-0.04415427517403027,-0.059544227922076816,-0.025165439206754948
0.806,-0.02368172179774062,-0.037851420523184014,-0.014879270744073681,0.030373371987888132,-0.004831666674555501,-0.02605573653136977,0.031980673680547425,0.009063665770481781,-0.046284881402938925,-0.04652688272326658,-0.060521386146936695,-0.02812994925389019
0.808,-0.028259505283338256,-0.04380832556009887,-0.01569219808963924,0.036838229980572,-0.0077106513111582405,-0.029356247493712795,0.030683110115328514,0.013805670777861209,-0.04795668918822429,-0.05090715784846053,-0.06526990602296343,-0.03148013389080118
0.81,-0.03019897035488105,-0.0465791855631554,-0.016143084107936998,0.040813956322583375,-0.00881326558593653,-0.031915394617686825,0.030155434904546956,0.020304137997101956,-0.049514534831613555,-0.05430090507034623,-0.07161597117799892,-0.03549511937011961
0.812,-0.030334554232063,-0.04611415228804901,-0.015583333083162182,0.041413164880099336,-0.008623095831414462,-0.03262327845801132,0.03169534942808219,0.03126318268732565,-0.04702956761326537,-0.05321528710399524,-0.07462698954932338,-0.03980386897846929
0.814,-0.03099111403127812,-0.04580813560599766,-0.014841745590706036,0.04123255887658911,-0.00874544716767703,-0.03244368035432779,0.03429057737516244,0.04411165782763021,-0.03996810503331863,-0.04653497191363147,-0.07169887152964681,-0.04277855464683228
0.816,-0.03148620082819001,-0.04664583964112233,-0.015297508832298568,0.041010093292557386,-0.008964946388981206,-0.03211219717632264,0.03615918293681001,0.0530422333373622,-0.03157526624886361,-0.037056132337162324,-0.06485458234088029,-0.042067513344766265
0.818,-0.02913871531313007,-0.046471087462398836,-0.01750598667821578,0.0387448795636386,-0.007143286399528192,-0.03165757190548409,0.037647778960477496,0.05631697253637955,-0.024241245369379667,-0.028757634186775915,-0.057195409934565254,-0.03709338358189742
0.82,-0.022983940575384665,-0.04369260550897429,-0.02099356221629132,0.03334700416589822,-0.0020341852158196295,-0.03130347971354213,0.039546422310395006,0.05751781012638426,-0.01792703631451588,-0.02289217724709798,-0.04954419845165289,-0.030111830392846466
0.822,-0.014937480219777243,-0.039173851763329035,-0.024615717777357653,0.026686793497498536,0.004557498033737875,-0.031297187629547654,0.039760144014694736,0.05930293259772222,-0.013619627044993211,-0.018971508042862833,-0.04213311330874158,-0.023790185956258533
0.824,-0.008318580488094652,-0.03517888260520551,-0.02711836204109048,0.02189579838365828,0.009107447862305496,-0.0316046970109142,0.0352493722123011,0.06061675748386151,-0.012995921980623116,-0.017056952805347306,-0.03667189475680033,-0.019150409674342044
0.826,-0.00513002724705439,-0.033391821729009216,-0.028260906159235745,0.020267238168436542,0.01025665887714959,-0.03237231021019808,0.027324411248406937,0.06089992141574446,-0.014221097280566131,-0.016353464915220557,-0.034132373071889856,-0.015730465201610717
0.828,-0.0047763419383080995,-0.03408253184394274,-0.029170851273020965,0.020781111781334585,0.01016403006925543,-0.033957982680957316,0.022151366859945388,0.06336664192949036,-0.012796835188652312,-0.014484305136492919,-0.0325458096436307,-0.01197556693151715
0.83,-0.005910611155486154,-0.036418260943490134,-0.030435904813914227,0.022250450392077726,0.010913879572262466,-0.035875648514120104,0.02434319183804722,0.07229434282748819,-0.006637337580588092,-0.010215283482131788,-0.029450573233207305,-0.007168771518025906
0.832,-0.008102281137074572,-0.03862740740629513,-0.030561476201873206,0.0241670147424361,0.01142629822745073,-0.036483284583113444,0.030957165321452335,0.08722872896664034,0.0016094126097050392,-0.005422400174882883,-0.02595251328266791,-0.004115492266895123
0.834,-0.01039741372710991,-0.038620912188587014,-0.028279900204830417,0.025586400560850903,0.010101383852098954,-0.03486766908372129,0.03463182740573841,0.10129451245302551,0.007392063179041302,-0.0030947297938304446,-0.026115174660357215,-0.006091373415141072
0.836,-0.010198257783748515,-0.036061971027341044,-0.02587120356248811,0.02506224293926374,0.008829240320190498,-0.032708805209220274,0.032793135655460506,0.10784712688688398,0.009789455028947857,-0.003580465931093167,-0.0311569884081217,-0.011069217778572686
0.838,-0.005741151091328885,-0.032941877370541404,-0.027173674972766022,0.02210096562842917,0.011063872966660835,-0.03252353185361453,0.02965629275284063,0.10793403025315397,0.012526149830598578,-0.0037209407517943445,-0.036367192101817776,-0.013800989376366963
0.84,0.001530455329386566,-0.030602041872119227,-0.03211549070939285,0.017522424803986143,0.016664696162622672,-0.03388293243477377,0.02884587754593813,0.10790461905302264,0.018004523485152545,-0.00022926815853916894,-0.03582307067123899,-0.012145179443725439
0.842,0.008282234761199062,-0.02883621165571745,-0.037125066915058694,0.012835689068492992,0.022082044591621993,-0.03453576718745983,0.02918019893108429,0.11145031774324798,0.02396583939500498,0.006553628657354407,-0.028264002389784697,-0.006999463433127672
0.844,0.012379677289873853,-0.028892654146161104,-0.04128476772038976,0.009939273541940208,0.025588149434514106,-0.03554115236508394,0.028674493726881634,0.11772716136121286,0.0277958314506292,0.013592301251140452,-0.01698611556352233,0.0007606106429650478
0.846,0.014351943940545515,-0.03205649493213962,-0.04641076621450058,0.009567621511154202,0.02863014629661825,-0.039489060602460956,0.02775581701105813,0.12468022716371684,0.02913935636227576,0.01934016853670931,-0.006578802432948226,0.009219409282728372
0.848,0.015362112764994981,-0.03510045484477954,-0.05045689341832592,0.010028769797944547,0.03124444706406381,-0.04348624744879906,0.027088234175270988,0.13104899708252735,0.02731749112758324,0.02476789147647928,-0.0005567211730320284,0.014929485096436544
0.85,0.014912398521687695,-0.03389401252603801,-0.048802430970596875,0.009756667469326198,0.030883588922977226,-0.042156116244762155,0.026227780363564317,0.13773949414455056,0.022569679621310564,0.03091108426124011,0.0007175779883738768,0.0169788613963755
0.852,0.012880808021168618,-0.030498330542349978,-0.04338033398932671,0.009713557111390844,0.02784137003295445,-0.03749615280601664,0.025054995354240002,0.14761760002070135,0.019606835538499668,0.03755900690923639,0.0004967328838942903,0.01851165646716788
0.854,0.011841331440224796,-0.02981054597037413,-0.04167656000886839,0.010781112799062048,0.02656478830657734,-0.03663309672209679,0.02402738514476621,0.16115004886827314,0.023265413945212688,0.04416181246558071,0.0026385957264105997,0.02234124157817845
0.856,0.014396610095806837,-0.031122387369323646,-0.04567291066173715,0.010727124783551074,0.029299906235937846,-0.04039431074960231,0.023888392338680432,0.17425691331300183,0.03197841117149979,0.0508332628028438,0.008392615849766808,0.027726379479013016
0.858,0.020164984712520928,-0.02944011403352,-0.050062650871744586,0.0065815298595454964,0.03355833993528144,-0.04267510525057116,0.025374478508157324,0.18292939561443175,0.04040008343412542,0.057969489019816536,0.016205118388149437,0.032123175921606295
0.86,0.027347946777329574,-0.022983112565230893,-0.051080159716348786,-0.0013146946656798838,0.03712555592277705,-0.039893390527127454,0.02748759672422661,0.18719434684250993,0.04585155472423752,0.06521194446995154,0.0235537756377344,0.03464961818111771
0.862,0.03482430551298235,-0.014635666878273789,-0.050138322399979174,-0.009695499167934087,0.04050987615377854,-0.03434370541610501,0.02770907201515075,0.18903524433674207,0.04890968583050855,0.07126608553883343,0.029118042669611807,0.03714011970390692
0.864,0.04127530259521244,-0.00860438788673714,-0.05011015938763976,-0.01546727365159671,0.04411080844665039,-0.030282629850763434,0.025460191127419464,0.1901678664751715,0.05069560409850445,0.07533974457541395,0.03379619970401922,0.04156787582083343
0.866,0.04536566781000381,-0.00751056698541984,-0.05268300111647119,-0.017777195905181238,0.047602380579243764,-0.03050949371538968,0.02304203195330059,0.19348177100938216,0.05217139606069487,0.07902622590940582,0.03894968489168919,0.04745392196505475
0.868,0.047682093713352865,-0.01002143687374718,-0.057362958217359324,-0.018155657221261192,0.051347073717839316,-0.0343047380859297,0.022256102446700683,0.20231940892847006,0.05428992598649072,0.08491313614437117,0.04374475682320482,0.05252467108860054
0.87,0.049259090302279485,-0.011975960407409314,-0.060890333122677005,-0.018214798716544748,0.0546663242099145,-0.037717511010676524,0.022528147758597284,0.21641816185833002,0.05776497660403549,0.09258172141780295,0.04603878440798486,0.05500635124794182
0.872,0.04917543259158386,-0.011171634097658383,-0.06002704141403319,-0.017810953900968093,0.05494782193712653,-0.03753169795598669,0.022792036482160695,0.23165451655190253,0.06315203781413216,0.09884509319644134,0.04593107090475777,0.05498161427168685
0.874,0.04739004374172848,-0.008731563918145373,-0.05592477768587233,-0.017068556314499123,0.05186332945213088,-0.034323460517048876,0.022814712582905232,0.244113730241578,0.07035775875433561,0.10242088030664988,0.04623969684620961,0.054202286201378264
0.876,0.047865346761594596,-0.006038525156732656,-0.05390214609888349,-0.018272907016241062,0.050113620495937615,-0.031364880832936926,0.02265754604432058,0.25294328110529263,0.0784691500209468,0.10570487187862264,0.04956112759340044,0.05501689271915719
0.878,0.054278763088971914,-0.0036160473837697315,-0.057995632943700005,-0.022986076660914265,0.054466318407270564,-0.031604430642359925,0.022433765888714676,0.26004995455548574,0.0870868081701939,0.11191884298535829,0.05656886862379297,0.058873233636231655
0.88,0.06386038021697739,-0.002252535851213263,-0.06616958563806957,-0.028958407033693945,0.06300321008231455,-0.03507702133930279,0.021800326026732396,0.26710766283260806,0.09580476165547948,0.12140721596283591,0.06588115710122029,0.0649002265446813
0.882,0.07028900373148422,-0.0018316881089325198,-0.0720959528874567,-0.032990427695223916,0.06903995818400863,-0.03846413053012229,0.019710307195719135,0.2738365496922785,0.10289365370270137,0.13080252960884672,0.07441645598418484,0.07077530589916312
0.884,0.07219827325736121,-0.00010624973445850925,-0.07226188772908021,-0.03532696798414028,0.06981036535249051,-0.03814686865139655,0.016312294215864137,0.2809610304304746,0.10817572788106641,0.13715203330386297,0.08015830523657898,0.07568347449112388
0.886,0.07399459320655824,0.004850570304202994,-0.06911483310213809,-0.03857126656267514,0.06891137282336594,-0.03373316944239954,0.013680901040190908,0.29145029960045715,0.11466076714635905,0.1419878736001764,0.08461635282361768,0.08076606250978229
0.888,0.07901609824555146,0.012173412350170809,-0.06673102461858209,-0.044059532341038994,0.07024345596036309,-0.02798575450355179,0.013021429173974338,0.3062644995452534,0.12402627134356582,0.1485896644426895,0.09023437692165213,0.08647700938838138
0.89,0.08596555731886608,0.018707146179109513,-0.06694433468807015,-0.05044963072363565,0.07401908127290494,-0.024405803169034665,0.013298080029535192,0.3230420341406475,0.1346303685455168,0.15705663226024297,0.09675209651069731,0.09131771708298594
0.892,0.09143888135068712,0.02138715954489493,-0.06962478258508581,-0.05474400410936719,0.07849043209820916,-0.024843660119902407,0.013660134647944012,0.34022066497999237,0.14552563991635428,0.16548211672551688,0.10250334587820119,0.0934361164678451
0.894,0.09410779080114856,0.02029170973890166,-0.07357313529316005,-0.055745141130573495,0.08258500132779802,-0.02801522658610354,0.014843891914239437,0.35782014127650813,0.15786455448248038,0.17418294718137967,0.10806020256787811,0.09325200099450306
0.896,0.09618708835387964,0.018873164322689682,-0.07746881481037463,-0.056068347900078606,0.086637140927914,-0.030907180589488062,0.017234323090516167,0.37422357710677584,0.17197498398871522,0.18537015704434073,0.11602161300426263,0.09405539137265223
0.898,0.10054578219897467,0.020162464259210863,-0.0808606299939669,-0.05883584193906952,0.09125609258592055,-0.03193834866435713,0.019087065190862368,0.3870495464052703,0.1860812614322203,0.1990841275046356,0.12679477012251072,0.09855220907879263
0.9,0.10715601461225845,0.02361474649547555,-0.08405213018471662,-0.0638621152198747,0.09603813401629632,-0.031932604559893545,0.017907938968123913,0.39701918489420135,0.19770316536783447,0.21157234630826738,0.13691999073769262,0.10567829113440746
0.902,0.11372258075050218,0.026000928880459743,-0.08803968473842627,-0.06859481774506318,0.10048414982908097,-0.03278941713719422,0.013873002491179003,0.4075708116061426,0.20585071893468107,0.21897413075957403,0.14331611931532937,0.1127341292925679
0.904,0.11971402485076175,0.025852969898200108,-0.09397301377139601,-0.0721502755895435,0.10575669160083752,-0.035287664348828136,0.010741105118099739,0.4212422633971148,0.21303143699272006,0.22264644752604124,0.1475954178208904,0.11897806845645507
0.906,0.12712949707195353,0.026510536846337,-0.10056561966282829,-0.07682913588400707,0.11282858109601566,-0.037269362122289346,0.011498481873086103,0.4379741378989858,0.22370006793046904,0.2287358578688986,0.15387199159291373,0.12512875038645213
0.908,0.13593760162656063,0.03202374215199481,-0.10371403345277252,-0.08421421195451669,0.11908145892078413,-0.03559657739904045,0.014326553294916179,0.45621652757539083,0.23875580867072843,0.24090324107883734,0.16295064083691416,0.1312396615200325
0.91,0.14245486134097543,0.04072260160993283,-0.10151320966712345,-0.09167802500965401,0.1206982769878268,-0.030804104293150097,0.015600781439803648,0.4749310170897064,0.25408602491810695,0.25557490057453347,0.17162282558660685,0.13692848822460651
0.912,0.14441459022193712,0.04694266883585395,-0.09742121418585607,-0.09558785441551816,0.11839824039492927,-0.02691414014418644,0.015026613097028378,0.4939206145905692,0.2663694946026666,0.26676983043445585,0.17828426131453656,0.14240328542852942
0.914,0.1450583111053148,0.04915649517498198,-0.09608291958453646,-0.09695823636924043,0.11745318753377694,-0.025791040919416662,0.01496102590211364,0.5125832053202365,0.2772284896197944,0.2741378274162517,0.18584249451452792,0.14850288930625344
0.916,0.15034288710066512,0.051787499810263316,-0.09882989376538628,-0.10089458968407616,0.1222595205519849,-0.025403257184869726,0.016300201104043406,0.5297831655370192,0.28998875772805305,0.28321708867718365,0.19709093575077224,0.15636384007297643
0.918,0.16207558535771585,0.05753971897930613,-0.10461054588734976,-0.10957790348048164,0.13229293138788606,-0.024577398119147775,0.017242270391153714,0.5444393431628407,0.30461005807259733,0.2975822502503995,0.21020450919204617,0.1661493092749044
0.92,0.1750661784085278,0.06321084325079479,-0.11149339510652247,-0.11886719397106033,0.14258497518506769,-0.024875654135656896,0.015712520023201292,0.5557556399914262,0.31749111757081955,0.3135258377396958,0.22122804134177146,0.1760909898489396
0.922,0.18277654769322818,0.06623138066820138,-0.11578431303257535,-0.12424546790177214,0.14783097193528,-0.026036643914314785,0.011721743759304053,0.5641091501391923,0.32614599810753775,0.324533013526755,0.22882359662700735,0.18448224731376764
0.924,0.184637539300825,0.07000562683966446,-0.11377434444888816,-0.12694149732002608,0.14707651071740585,-0.024166223547535327,0.0070802873270816875,0.5716209598360591,0.333152169146914,0.3294780215006271,0.23506826024476968,0.19174849716984294
0.926,0.1854792078266797,0.07820014924506588,-0.10670089035002195,-0.13097751136200125,0.14444664762914355,-0.017336463231236655,0.0036284246788693556,0.5810422309260617,0.3431299855839146,0.33356192828149106,0.24265407215996204,0.19928238252385108
0.928,0.18912506734843637,0.08789532138971741,-0.10111068138878071,-0.13706997202224203,0.1447925214263487,-0.009653289295337975,0.002179418747986936,0.5942274296839682,0.3562010959110582,0.34166515020840976,0.25160838331605506,0.20755891982068628
0.93,0.19552601559402089,0.09350644672452205,-0.10219253637858763,-0.14287219180324365,0.14937097629341262,-0.006591234150092429,0.0027464132857657393,0.6111151405168858,0.36915162074526,0.3536692432515585,0.25943141240092277,0.21551947968133334
0.932,0.20274395503131443,0.09434862872195174,-0.10854508809062494,-0.14682849511047535,0.15572191404401187,-0.00852894687393751,0.004950543997445897,0.6292222521181235,0.3817685512388843,0.36641490701586715,0.26512961463393925,0.22109875451828995
0.934,0.20910500200697163,0.09399556699778427,-0.11509716557462615,-0.1493154830025183,0.1609002552903521,-0.011628707140746382,0.007877546076622716,0.6452581312899524,0.3960296420695434,0.37811152159310946,0.2712972763409093,0.22380886764272326
